979345,+2.485800E+01
979357,+2.486100E+01
979369,+2.485900E+01
979381,+2.485600E+01
979393,+2.486400E+01
979405,+2.485600E+01
979417,+2.486100E+01
979429,+2.485900E+01
979441,+2.485800E+01
979453,+2.486200E+01
979465,+2.485500E+01
979477,+2.486300E+01
979489,+2.485900E+01
979501,+2.485800E+01
979513,+2.486400E+01
979525,+2.485700E+01
979537,+2.486400E+01
979549,+2.486000E+01
979561,+2.485900E+01
979573,+2.486200E+01
979585,+2.485600E+01
979597,+2.486200E+01
979609,+2.485900E+01
979621,+2.485600E+01
979633,+2.486400E+01
979645,+2.485500E+01
979657,+2.486200E+01
979669,+2.486100E+01
979681,+2.486200E+01
979693,+2.486300E+01
979705,+2.485600E+01
979717,+2.486300E+01
979729,+2.486300E+01
979741,+2.485800E+01
979753,+2.486500E+01
979765,+2.485800E+01
979777,+2.486200E+01
979789,+2.486100E+01
979801,+2.486100E+01
979813,+2.486500E+01
979825,+2.485800E+01
979837,+2.486100E+01
979849,+2.486100E+01
979861,+2.486100E+01
979873,+2.486700E+01
979885,+2.485800E+01
979897,+2.486300E+01
979909,+2.485900E+01
979921,+2.486000E+01
979933,+2.486700E+01
979945,+2.485800E+01
979957,+2.486300E+01
979969,+2.486100E+01
979981,+2.486100E+01
979993,+2.486600E+01
980005,+2.486000E+01
980017,+2.486400E+01
980029,+2.486000E+01
980041,+2.486100E+01
980053,+2.486400E+01
980065,+2.486200E+01
980077,+2.486400E+01
980089,+2.486200E+01
980101,+2.486100E+01
980113,+2.486700E+01
980125,+2.486100E+01
980137,+2.486600E+01
980149,+2.486200E+01
980161,+2.486200E+01
980173,+2.486800E+01
980185,+2.486300E+01
980197,+2.486100E+01
980209,+2.486200E+01
980221,+2.486000E+01
980233,+2.486800E+01
980245,+2.486000E+01
980257,+2.486400E+01
980269,+2.486600E+01
980281,+2.486000E+01
980293,+2.486400E+01
980305,+2.485900E+01
980317,+2.486300E+01
980329,+2.486000E+01
980341,+2.486100E+01
980353,+2.486600E+01
980365,+2.486000E+01
980377,+2.486200E+01
980389,+2.486300E+01
980401,+2.486200E+01
980413,+2.486600E+01
980425,+2.485800E+01
980437,+2.486400E+01
980449,+2.486300E+01
980461,+2.486100E+01
980473,+2.486400E+01
980485,+2.486100E+01
980497,+2.486400E+01
980509,+2.486400E+01
980521,+2.486300E+01
980533,+2.486700E+01
980545,+2.485800E+01
980557,+2.486600E+01
980569,+2.486300E+01
980581,+2.486000E+01
980593,+2.486600E+01
980605,+2.486100E+01
980617,+2.486400E+01
980629,+2.486300E+01
980641,+2.486300E+01
980653,+2.486800E+01
980665,+2.486300E+01
980677,+2.486600E+01
980689,+2.486300E+01
980701,+2.486400E+01
980713,+2.486500E+01
980725,+2.486100E+01
980737,+2.486900E+01
980749,+2.486400E+01
980761,+2.486200E+01
980773,+2.486700E+01
980785,+2.485900E+01
980797,+2.486700E+01
980809,+2.486400E+01
980821,+2.486200E+01
980833,+2.487000E+01
980845,+2.486200E+01
980857,+2.486400E+01
980869,+2.486100E+01
980881,+2.486400E+01
980893,+2.486800E+01
980905,+2.486300E+01
980917,+2.486600E+01
980929,+2.486600E+01
980941,+2.486300E+01
980953,+2.486800E+01
980965,+2.486300E+01
980977,+2.486600E+01
980989,+2.486300E+01
981001,+2.486300E+01
981013,+2.486900E+01
981025,+2.486300E+01
981037,+2.486700E+01
981049,+2.486600E+01
981061,+2.486300E+01
981073,+2.486800E+01
981085,+2.486100E+01
981097,+2.486600E+01
981109,+2.486500E+01
981121,+2.486300E+01
981133,+2.486900E+01
981145,+2.486100E+01
981157,+2.486900E+01
981169,+2.486600E+01
981181,+2.486300E+01
981193,+2.487000E+01
981205,+2.486300E+01
981217,+2.486500E+01
981229,+2.486800E+01
981241,+2.486300E+01
981253,+2.487000E+01
981265,+2.486300E+01
981277,+2.486800E+01
981289,+2.486800E+01
981301,+2.486600E+01
981313,+2.487000E+01
981325,+2.486300E+01
981337,+2.486700E+01
981349,+2.486900E+01
981361,+2.486400E+01
981373,+2.486700E+01
981385,+2.486400E+01
981397,+2.486900E+01
981409,+2.486700E+01
981421,+2.486300E+01
981433,+2.486900E+01
981445,+2.486500E+01
981457,+2.487000E+01
981469,+2.487000E+01
981481,+2.486300E+01
981493,+2.487300E+01
981505,+2.486700E+01
981517,+2.487100E+01
981529,+2.486800E+01
981541,+2.486700E+01
981553,+2.486700E+01
981565,+2.486400E+01
981577,+2.486900E+01
981589,+2.486800E+01
981601,+2.486600E+01
981613,+2.487200E+01
981625,+2.486700E+01
981637,+2.486900E+01
981649,+2.486800E+01
981661,+2.486600E+01
981673,+2.487100E+01
981685,+2.486400E+01
981697,+2.486700E+01
981709,+2.486800E+01
981721,+2.486800E+01
981733,+2.487100E+01
981745,+2.486500E+01
981757,+2.486800E+01
981769,+2.486700E+01
981781,+2.486600E+01
981793,+2.487400E+01
981805,+2.486300E+01
981817,+2.487000E+01
981829,+2.486800E+01
981841,+2.486700E+01
981853,+2.487200E+01
981865,+2.486500E+01
981877,+2.487000E+01
981889,+2.486900E+01
981901,+2.486700E+01
981913,+2.487200E+01
981925,+2.486400E+01
981937,+2.486900E+01
981949,+2.487100E+01
981961,+2.486600E+01
981973,+2.487400E+01
981985,+2.486400E+01
981997,+2.487000E+01
982009,+2.486800E+01
982021,+2.486600E+01
982033,+2.487100E+01
982045,+2.486600E+01
982057,+2.486800E+01
982069,+2.487100E+01
982081,+2.486600E+01
982093,+2.487400E+01
982105,+2.486500E+01
982117,+2.486900E+01
982129,+2.487000E+01
982141,+2.486900E+01
982153,+2.487300E+01
982165,+2.486500E+01
982177,+2.487000E+01
982189,+2.486900E+01
982201,+2.486800E+01
982213,+2.487200E+01
982225,+2.486500E+01
982237,+2.487100E+01
982249,+2.486900E+01
982261,+2.486700E+01
982273,+2.487300E+01
982285,+2.486800E+01
982297,+2.487400E+01
982309,+2.487000E+01
982321,+2.486800E+01
982333,+2.487200E+01
982345,+2.487000E+01
982357,+2.487300E+01
982369,+2.487200E+01
982381,+2.486900E+01
982393,+2.487400E+01
982405,+2.486700E+01
982417,+2.487300E+01
982429,+2.487200E+01
982441,+2.486800E+01
982453,+2.487200E+01
982465,+2.487000E+01
982477,+2.487200E+01
982489,+2.487100E+01
982501,+2.486900E+01
982513,+2.487400E+01
982525,+2.486700E+01
982537,+2.487100E+01
982549,+2.487200E+01
982561,+2.487000E+01
982573,+2.487400E+01
982585,+2.486500E+01
982597,+2.487100E+01
982609,+2.487300E+01
982621,+2.486800E+01
982633,+2.487500E+01
982645,+2.486800E+01
982657,+2.487300E+01
982669,+2.487100E+01
982681,+2.487000E+01
982693,+2.487300E+01
982705,+2.486800E+01
982717,+2.487100E+01
982729,+2.487300E+01
982741,+2.486900E+01
982753,+2.487300E+01
982765,+2.486800E+01
982777,+2.487200E+01
982789,+2.487400E+01
982801,+2.486900E+01
982813,+2.487500E+01
982825,+2.487100E+01
982837,+2.487400E+01
982849,+2.487100E+01
982861,+2.487000E+01
982873,+2.487500E+01
982885,+2.486600E+01
982897,+2.487400E+01
982909,+2.487400E+01
982921,+2.486900E+01
982933,+2.487900E+01
982945,+2.486800E+01
982957,+2.487300E+01
982969,+2.487100E+01
982981,+2.486800E+01
982993,+2.487400E+01
983005,+2.487000E+01
983017,+2.487300E+01
983029,+2.487100E+01
983041,+2.486900E+01
983053,+2.487400E+01
983065,+2.487200E+01
983077,+2.487300E+01
983089,+2.487000E+01
983101,+2.486800E+01
983113,+2.487500E+01
983125,+2.486800E+01
983137,+2.487000E+01
983149,+2.487100E+01
983161,+2.487000E+01
983173,+2.487200E+01
983185,+2.486800E+01
983197,+2.487100E+01
983209,+2.487100E+01
983221,+2.486900E+01
983233,+2.487200E+01
983245,+2.487100E+01
983257,+2.487300E+01
983269,+2.487400E+01
983281,+2.486900E+01
983293,+2.487700E+01
983305,+2.487200E+01
983317,+2.487400E+01
983329,+2.487500E+01
983341,+2.487100E+01
983353,+2.487900E+01
983365,+2.487100E+01
983377,+2.487500E+01
983389,+2.487400E+01
983401,+2.487300E+01
983413,+2.487600E+01
983425,+2.487200E+01
983437,+2.487400E+01
983449,+2.487500E+01
983461,+2.487400E+01
983473,+2.487800E+01
983485,+2.487100E+01
983497,+2.487400E+01
983509,+2.487400E+01
983521,+2.487100E+01
983533,+2.487800E+01
983545,+2.486900E+01
983557,+2.487200E+01
983569,+2.487400E+01
983581,+2.487400E+01
983593,+2.487800E+01
983605,+2.487100E+01
983617,+2.487600E+01
983629,+2.487600E+01
983641,+2.487100E+01
983653,+2.487600E+01
983665,+2.487300E+01
983677,+2.487600E+01
983689,+2.487400E+01
983701,+2.487400E+01
983713,+2.487900E+01
983725,+2.487400E+01
983737,+2.487500E+01
983749,+2.487400E+01
983761,+2.487200E+01
983773,+2.487700E+01
983785,+2.486900E+01
983797,+2.487300E+01
983809,+2.487600E+01
983821,+2.487200E+01
983833,+2.487500E+01
983845,+2.487300E+01
983857,+2.487500E+01
983869,+2.487800E+01
983881,+2.487400E+01
983893,+2.487800E+01
983905,+2.487200E+01
983917,+2.487600E+01
983929,+2.487500E+01
983941,+2.487200E+01
983953,+2.487600E+01
983965,+2.487100E+01
983977,+2.487600E+01
983989,+2.487600E+01
984001,+2.487000E+01
984013,+2.487800E+01
984025,+2.487200E+01
984037,+2.487300E+01
984049,+2.487100E+01
984061,+2.487500E+01
984073,+2.488100E+01
984085,+2.487100E+01
984097,+2.487800E+01
984109,+2.487500E+01
984121,+2.487400E+01
984133,+2.487500E+01
984145,+2.487400E+01
984157,+2.487500E+01
984169,+2.487300E+01
984181,+2.487400E+01
984193,+2.488100E+01
984205,+2.487000E+01
984217,+2.487800E+01
984229,+2.487600E+01
984241,+2.487300E+01
984253,+2.487800E+01
984265,+2.487300E+01
984277,+2.487700E+01
984289,+2.487600E+01
984301,+2.487300E+01
984313,+2.488000E+01
984325,+2.487500E+01
984337,+2.487700E+01
984349,+2.487600E+01
984361,+2.487400E+01
984373,+2.487800E+01
984385,+2.487300E+01
984397,+2.487800E+01
984409,+2.487500E+01
984421,+2.487400E+01
984433,+2.487600E+01
984445,+2.487300E+01
984457,+2.487900E+01
984469,+2.487700E+01
984481,+2.487400E+01
984493,+2.488000E+01
984505,+2.487200E+01
984517,+2.487800E+01
984529,+2.487500E+01
984541,+2.487500E+01
984553,+2.487900E+01
984565,+2.487200E+01
984577,+2.487700E+01
984589,+2.487700E+01
984601,+2.487500E+01
984613,+2.487900E+01
984625,+2.487300E+01
984637,+2.487600E+01
984649,+2.488000E+01
984661,+2.487600E+01
984673,+2.487800E+01
984685,+2.487200E+01
984697,+2.487900E+01
984709,+2.487900E+01
984721,+2.487500E+01
984733,+2.488000E+01
984745,+2.487400E+01
984757,+2.487700E+01
984769,+2.487700E+01
984781,+2.487600E+01
984793,+2.488100E+01
984805,+2.487800E+01
984817,+2.487900E+01
984829,+2.487800E+01
984841,+2.487400E+01
984853,+2.488300E+01
984865,+2.487600E+01
984877,+2.487700E+01
984889,+2.487900E+01
984901,+2.487700E+01
984913,+2.487900E+01
984925,+2.487400E+01
984937,+2.487900E+01
984949,+2.487400E+01
984961,+2.487700E+01
984973,+2.488300E+01
984985,+2.487500E+01
984997,+2.487800E+01
985009,+2.487900E+01
985021,+2.487400E+01
985033,+2.487900E+01
985045,+2.487400E+01
985057,+2.487900E+01
985069,+2.487900E+01
985081,+2.487700E+01
985093,+2.488100E+01
985105,+2.487300E+01
985117,+2.488000E+01
985129,+2.487900E+01
985141,+2.487600E+01
985153,+2.488000E+01
985165,+2.487400E+01
985177,+2.487900E+01
985189,+2.487800E+01
985201,+2.487500E+01
985213,+2.488300E+01
985225,+2.487500E+01
985237,+2.488000E+01
985249,+2.487900E+01
985261,+2.487700E+01
985273,+2.488400E+01
985285,+2.487400E+01
985297,+2.487800E+01
985309,+2.487900E+01
985321,+2.487800E+01
985333,+2.488200E+01
985345,+2.487600E+01
985357,+2.488400E+01
985369,+2.487800E+01
985381,+2.487600E+01
985393,+2.488100E+01
985405,+2.487600E+01
985417,+2.488200E+01
985429,+2.487900E+01
985441,+2.487900E+01
985453,+2.488000E+01
985465,+2.487800E+01
985477,+2.488100E+01
985489,+2.487900E+01
985501,+2.487700E+01
985513,+2.488400E+01
985525,+2.487700E+01
985537,+2.488100E+01
985549,+2.487800E+01
985561,+2.487900E+01
985573,+2.488300E+01
985585,+2.487400E+01
985597,+2.488300E+01
985609,+2.487900E+01
985621,+2.487900E+01
985633,+2.488200E+01
985645,+2.487600E+01
985657,+2.488200E+01
985669,+2.487800E+01
985681,+2.487800E+01
985693,+2.488400E+01
985705,+2.487700E+01
985717,+2.488200E+01
985729,+2.488200E+01
985741,+2.488100E+01
985753,+2.488100E+01
985765,+2.487600E+01
985777,+2.488200E+01
985789,+2.488000E+01
985801,+2.487700E+01
985813,+2.488500E+01
985825,+2.487700E+01
985837,+2.488700E+01
985849,+2.487700E+01
985861,+2.487900E+01
985873,+2.488300E+01
985885,+2.487700E+01
985897,+2.488200E+01
985909,+2.488000E+01
985921,+2.488000E+01
985933,+2.488400E+01
985945,+2.488200E+01
985957,+2.488100E+01
985969,+2.488200E+01
985981,+2.487900E+01
985993,+2.488300E+01
986005,+2.487500E+01
986017,+2.488500E+01
986029,+2.488300E+01
986041,+2.487900E+01
986053,+2.488400E+01
986065,+2.487800E+01
986077,+2.488300E+01
986089,+2.487900E+01
986101,+2.487800E+01
986113,+2.488400E+01
986125,+2.488100E+01
986137,+2.488200E+01
986149,+2.488000E+01
986161,+2.487900E+01
986173,+2.488600E+01
986185,+2.487900E+01
986197,+2.488100E+01
986209,+2.488400E+01
986221,+2.487900E+01
986233,+2.488400E+01
986245,+2.487800E+01
986257,+2.488400E+01
986269,+2.488300E+01
986281,+2.487900E+01
986293,+2.488700E+01
986305,+2.487900E+01
986317,+2.488400E+01
986329,+2.488300E+01
986341,+2.488000E+01
986353,+2.488400E+01
986365,+2.488000E+01
986377,+2.488500E+01
986389,+2.488100E+01
986401,+2.488100E+01
986413,+2.488500E+01
986425,+2.488000E+01
986437,+2.488300E+01
986449,+2.487900E+01
986461,+2.488400E+01
986473,+2.488500E+01
986485,+2.487900E+01
986497,+2.488300E+01
986509,+2.488400E+01
986521,+2.488100E+01
986533,+2.488500E+01
986545,+2.488000E+01
986557,+2.488400E+01
986569,+2.488000E+01
986581,+2.488100E+01
986593,+2.488800E+01
986605,+2.487900E+01
986617,+2.488600E+01
986629,+2.488300E+01
986641,+2.488100E+01
986653,+2.488700E+01
986665,+2.487800E+01
986677,+2.488600E+01
986689,+2.488200E+01
986701,+2.488300E+01
986713,+2.488500E+01
986725,+2.488100E+01
986737,+2.488700E+01
986749,+2.488300E+01
986761,+2.488400E+01
986773,+2.488400E+01
986785,+2.487800E+01
986797,+2.488800E+01
986809,+2.488100E+01
986821,+2.488100E+01
986833,+2.488400E+01
986845,+2.487900E+01
986857,+2.488400E+01
986869,+2.488300E+01
986881,+2.488300E+01
986893,+2.488600E+01
986905,+2.488200E+01
986917,+2.488400E+01
986929,+2.488000E+01
986941,+2.487900E+01
986953,+2.488500E+01
986965,+2.488000E+01
986977,+2.488300E+01
986989,+2.488500E+01
987001,+2.488200E+01
987013,+2.488700E+01
987025,+2.487900E+01
987037,+2.488600E+01
987049,+2.488300E+01
987061,+2.488100E+01
987073,+2.488900E+01
987085,+2.487900E+01
987097,+2.488400E+01
987109,+2.488400E+01
987121,+2.488400E+01
987133,+2.488700E+01
987145,+2.487600E+01
987157,+2.488600E+01
987169,+2.488100E+01
987181,+2.488300E+01
987193,+2.488700E+01
987205,+2.488400E+01
987217,+2.488600E+01
987229,+2.488400E+01
987241,+2.488400E+01
987253,+2.489000E+01
987265,+2.488000E+01
987277,+2.488700E+01
987289,+2.488300E+01
987301,+2.488500E+01
987313,+2.488900E+01
987325,+2.488000E+01
987337,+2.488400E+01
987349,+2.488200E+01
987361,+2.488200E+01
987373,+2.488600E+01
987385,+2.488100E+01
987397,+2.488600E+01
987409,+2.488400E+01
987421,+2.488300E+01
987433,+2.488800E+01
987445,+2.488300E+01
987457,+2.488600E+01
987469,+2.488400E+01
987481,+2.488500E+01
987493,+2.488800E+01
987505,+2.488300E+01
987517,+2.488800E+01
987529,+2.488100E+01
987541,+2.488400E+01
987553,+2.488900E+01
987565,+2.488400E+01
987577,+2.488700E+01
987589,+2.488200E+01
987601,+2.488900E+01
987613,+2.488900E+01
987625,+2.488300E+01
987637,+2.488700E+01
987649,+2.488600E+01
987661,+2.488500E+01
987673,+2.489000E+01
987685,+2.488500E+01
987697,+2.488900E+01
987709,+2.488500E+01
987717,+2.500000E+01
987729,+2.488800E+01
987741,+2.488300E+01
987753,+2.489000E+01
987765,+2.488500E+01
987777,+2.488500E+01
987789,+2.489000E+01
987801,+2.488200E+01
987813,+2.488900E+01
987825,+2.488500E+01
987837,+2.488400E+01
987849,+2.488800E+01
987861,+2.488300E+01
987873,+2.488900E+01
987885,+2.488300E+01
987897,+2.488600E+01
987909,+2.489000E+01
987921,+2.488000E+01
987933,+2.489000E+01
987945,+2.488600E+01
987957,+2.488700E+01
987969,+2.488900E+01
987981,+2.488600E+01
987993,+2.488800E+01
988005,+2.488400E+01
988017,+2.488600E+01
988029,+2.489000E+01
988041,+2.488100E+01
988053,+2.489100E+01
988065,+2.488600E+01
988077,+2.488500E+01
988089,+2.489100E+01
988101,+2.488200E+01
988113,+2.489000E+01
988125,+2.488800E+01
988137,+2.488600E+01
988149,+2.489100E+01
988161,+2.488500E+01
988173,+2.489000E+01
988185,+2.488700E+01
988197,+2.488800E+01
988209,+2.489100E+01
988221,+2.488500E+01
988233,+2.489000E+01
988245,+2.488500E+01
988257,+2.488600E+01
988269,+2.489000E+01
988281,+2.488500E+01
988293,+2.489000E+01
988305,+2.488500E+01
988317,+2.488900E+01
988329,+2.489400E+01
988341,+2.488200E+01
988353,+2.488800E+01
988365,+2.488500E+01
988377,+2.488700E+01
988389,+2.489100E+01
988401,+2.488500E+01
988413,+2.489000E+01
988425,+2.488600E+01
988437,+2.488600E+01
988449,+2.489100E+01
988461,+2.488300E+01
988473,+2.488900E+01
988485,+2.488600E+01
988497,+2.488600E+01
988509,+2.489300E+01
988521,+2.488300E+01
988533,+2.489100E+01
988545,+2.488700E+01
988557,+2.488800E+01
988569,+2.489100E+01
988581,+2.488400E+01
988593,+2.489100E+01
988605,+2.488600E+01
988617,+2.488900E+01
988629,+2.489200E+01
988641,+2.488600E+01
988653,+2.489200E+01
988665,+2.488700E+01
988677,+2.488900E+01
988689,+2.489000E+01
988701,+2.488900E+01
988713,+2.488700E+01
988725,+2.488700E+01
988737,+2.489000E+01
988749,+2.489200E+01
988761,+2.488400E+01
988773,+2.489100E+01
988785,+2.488500E+01
988797,+2.488700E+01
988809,+2.489000E+01
988821,+2.488500E+01
988833,+2.489200E+01
988845,+2.489100E+01
988857,+2.488800E+01
988869,+2.489200E+01
988881,+2.488400E+01
988893,+2.489300E+01
988905,+2.488900E+01
988917,+2.488800E+01
988929,+2.489100E+01
988941,+2.488800E+01
988953,+2.489000E+01
988965,+2.488700E+01
988977,+2.489100E+01
988989,+2.489100E+01
989001,+2.489000E+01
989013,+2.489400E+01
989025,+2.488800E+01
989037,+2.489000E+01
989049,+2.489100E+01
989061,+2.488900E+01
989073,+2.489200E+01
989085,+2.488800E+01
989097,+2.488900E+01
989109,+2.489200E+01
989121,+2.488500E+01
989133,+2.489300E+01
989145,+2.488700E+01
989157,+2.489000E+01
989169,+2.489400E+01
989181,+2.488700E+01
989193,+2.489300E+01
989205,+2.488900E+01
989217,+2.489100E+01
989229,+2.489400E+01
989241,+2.488800E+01
989253,+2.489100E+01
989265,+2.489000E+01
989277,+2.489000E+01
989289,+2.489100E+01
989301,+2.489000E+01
989313,+2.489200E+01
989325,+2.488800E+01
989337,+2.489000E+01
989349,+2.489000E+01
989361,+2.488900E+01
989373,+2.489400E+01
989385,+2.488600E+01
989397,+2.489100E+01
989409,+2.489500E+01
989421,+2.488700E+01
989433,+2.489400E+01
989445,+2.488800E+01
989457,+2.489000E+01
989469,+2.489200E+01
989481,+2.488900E+01
989493,+2.489400E+01
989505,+2.488800E+01
989517,+2.489000E+01
989529,+2.489300E+01
989541,+2.488600E+01
989553,+2.489500E+01
989565,+2.489000E+01
989577,+2.489000E+01
989589,+2.489200E+01
989601,+2.489000E+01
989613,+2.489300E+01
989625,+2.488800E+01
989637,+2.489200E+01
989649,+2.489400E+01
989661,+2.488600E+01
989673,+2.489600E+01
989685,+2.488900E+01
989697,+2.489100E+01
989709,+2.489200E+01
989721,+2.488600E+01
989733,+2.489500E+01
989745,+2.489000E+01
989757,+2.489100E+01
989769,+2.489600E+01
989781,+2.489100E+01
989793,+2.489100E+01
989805,+2.488800E+01
989817,+2.489200E+01
989829,+2.489200E+01
989841,+2.488500E+01
989853,+2.489400E+01
989865,+2.489000E+01
989877,+2.489500E+01
989889,+2.489600E+01
989901,+2.488500E+01
989913,+2.489600E+01
989925,+2.488800E+01
989937,+2.489300E+01
989949,+2.489600E+01
989961,+2.488900E+01
989973,+2.489500E+01
989985,+2.488900E+01
989997,+2.489300E+01
990009,+2.489500E+01
990021,+2.488900E+01
990033,+2.489500E+01
990045,+2.489000E+01
990057,+2.489400E+01
990069,+2.489200E+01
990081,+2.489100E+01
990093,+2.489500E+01
990105,+2.489000E+01
990117,+2.489100E+01
990129,+2.489400E+01
990141,+2.489000E+01
990153,+2.489500E+01
990165,+2.489000E+01
990177,+2.489400E+01
990189,+2.489500E+01
990201,+2.489000E+01
990213,+2.489600E+01
990225,+2.489100E+01
990237,+2.489400E+01
990249,+2.489700E+01
990261,+2.489000E+01
990273,+2.489600E+01
990285,+2.488900E+01
990297,+2.489200E+01
990309,+2.489500E+01
990321,+2.489200E+01
990333,+2.489500E+01
990345,+2.489000E+01
990357,+2.489600E+01
990369,+2.489300E+01
990381,+2.488800E+01
990393,+2.489600E+01
990405,+2.489200E+01
990417,+2.489600E+01
990429,+2.489400E+01
990441,+2.489400E+01
990453,+2.489900E+01
990465,+2.489000E+01
990477,+2.489600E+01
990489,+2.489400E+01
990501,+2.489100E+01
990513,+2.489400E+01
990525,+2.489000E+01
990537,+2.489200E+01
990549,+2.489700E+01
990561,+2.489200E+01
990573,+2.489500E+01
990585,+2.489000E+01
990597,+2.489300E+01
990609,+2.489600E+01
990621,+2.489000E+01
990633,+2.489800E+01
990645,+2.489000E+01
990657,+2.489100E+01
990669,+2.489800E+01
990681,+2.488800E+01
990693,+2.489700E+01
990705,+2.489300E+01
990717,+2.489400E+01
990729,+2.489300E+01
990741,+2.489100E+01
990753,+2.489800E+01
990765,+2.489200E+01
990777,+2.489800E+01
990789,+2.489500E+01
990801,+2.489300E+01
990813,+2.489700E+01
990825,+2.489100E+01
990837,+2.489500E+01
990849,+2.489600E+01
990861,+2.489200E+01
990873,+2.489700E+01
990885,+2.489200E+01
990897,+2.489500E+01
990909,+2.489700E+01
990921,+2.489600E+01
990933,+2.489900E+01
990945,+2.489200E+01
990957,+2.489700E+01
990969,+2.489700E+01
990981,+2.489300E+01
990993,+2.489900E+01
991005,+2.489500E+01
991017,+2.489500E+01
991029,+2.489700E+01
991041,+2.489100E+01
991053,+2.489700E+01
991065,+2.489200E+01
991077,+2.489600E+01
991089,+2.489500E+01
991101,+2.489200E+01
991113,+2.489600E+01
991125,+2.489100E+01
991137,+2.489500E+01
991149,+2.489700E+01
991161,+2.489400E+01
991173,+2.489800E+01
991185,+2.489300E+01
991197,+2.489600E+01
991209,+2.489800E+01
991221,+2.489400E+01
991233,+2.490000E+01
991245,+2.489200E+01
991257,+2.489900E+01
991269,+2.489500E+01
991281,+2.489500E+01
991293,+2.490100E+01
991305,+2.489400E+01
991317,+2.489500E+01
991329,+2.489900E+01
991341,+2.489200E+01
991353,+2.489900E+01
991365,+2.489500E+01
991377,+2.489600E+01
991389,+2.489800E+01
991401,+2.489100E+01
991413,+2.490000E+01
991425,+2.489500E+01
991437,+2.489600E+01
991449,+2.489700E+01
991461,+2.489500E+01
991473,+2.489700E+01
991485,+2.489100E+01
991497,+2.489700E+01
991509,+2.489500E+01
991521,+2.489500E+01
991533,+2.490400E+01
991545,+2.489400E+01
991557,+2.489700E+01
991569,+2.489500E+01
991581,+2.489500E+01
991593,+2.490000E+01
991605,+2.489400E+01
991617,+2.489700E+01
991629,+2.489500E+01
991641,+2.489600E+01
991653,+2.490100E+01
991665,+2.489300E+01
991677,+2.489500E+01
991689,+2.489500E+01
991701,+2.489600E+01
991713,+2.490000E+01
991725,+2.489200E+01
991737,+2.489700E+01
991749,+2.489800E+01
991761,+2.489300E+01
991773,+2.489900E+01
991785,+2.489300E+01
991797,+2.489800E+01
991809,+2.489900E+01
991821,+2.489700E+01
991833,+2.490000E+01
991845,+2.489500E+01
991857,+2.489900E+01
991869,+2.489600E+01
991881,+2.489600E+01
991893,+2.490200E+01
991905,+2.489400E+01
991917,+2.489600E+01
991929,+2.489600E+01
991941,+2.489500E+01
991953,+2.490100E+01
991965,+2.489600E+01
991977,+2.489900E+01
991989,+2.489500E+01
992001,+2.489600E+01
992013,+2.490200E+01
992025,+2.489400E+01
992037,+2.490000E+01
992049,+2.489700E+01
992061,+2.489600E+01
992073,+2.490000E+01
992085,+2.489400E+01
992097,+2.489800E+01
992109,+2.490000E+01
992121,+2.489300E+01
992133,+2.490100E+01
992145,+2.489500E+01
992157,+2.490000E+01
992169,+2.489800E+01
992181,+2.489700E+01
992193,+2.490000E+01
992205,+2.489500E+01
992217,+2.490000E+01
992229,+2.489900E+01
992241,+2.489700E+01
992253,+2.490100E+01
992265,+2.489500E+01
992277,+2.489900E+01
992289,+2.489600E+01
992301,+2.489800E+01
992313,+2.490000E+01
992325,+2.489600E+01
992337,+2.490200E+01
992349,+2.490000E+01
992361,+2.489600E+01
992373,+2.490100E+01
992385,+2.489300E+01
992397,+2.489800E+01
992409,+2.489800E+01
992421,+2.489800E+01
992433,+2.490100E+01
992445,+2.489700E+01
992457,+2.490100E+01
992469,+2.490000E+01
992481,+2.489800E+01
992493,+2.490400E+01
992505,+2.489600E+01
992517,+2.490100E+01
992529,+2.490000E+01
992541,+2.490000E+01
992553,+2.490500E+01
992565,+2.489700E+01
992577,+2.490000E+01
992589,+2.490200E+01
992601,+2.489700E+01
992613,+2.490300E+01
992625,+2.489500E+01
992637,+2.489900E+01
992649,+2.489800E+01
992661,+2.489800E+01
992673,+2.490200E+01
992685,+2.489800E+01
992697,+2.490000E+01
992709,+2.489800E+01
992721,+2.489900E+01
992733,+2.490000E+01
992745,+2.489800E+01
992757,+2.490300E+01
992769,+2.490000E+01
992781,+2.489900E+01
992793,+2.490400E+01
992805,+2.489700E+01
992817,+2.490300E+01
992829,+2.490000E+01
992841,+2.490000E+01
992853,+2.490500E+01
992865,+2.489800E+01
992877,+2.490400E+01
992889,+2.489600E+01
992901,+2.489900E+01
992913,+2.490400E+01
992925,+2.489800E+01
992937,+2.490300E+01
992949,+2.490000E+01
992961,+2.490300E+01
992973,+2.490100E+01
992985,+2.489800E+01
992997,+2.490000E+01
993009,+2.489900E+01
993021,+2.489700E+01
993033,+2.490200E+01
993045,+2.489900E+01
993057,+2.490300E+01
993069,+2.490000E+01
993081,+2.489900E+01
993093,+2.490700E+01
993105,+2.489800E+01
993117,+2.490400E+01
993129,+2.490000E+01
993141,+2.490000E+01
993153,+2.490600E+01
993165,+2.490000E+01
993177,+2.490400E+01
993189,+2.490000E+01
993201,+2.489800E+01
993213,+2.490700E+01
993225,+2.489900E+01
993237,+2.490300E+01
993249,+2.490000E+01
993261,+2.490200E+01
993273,+2.490500E+01
993285,+2.490000E+01
993297,+2.490100E+01
993309,+2.490200E+01
993321,+2.490000E+01
993333,+2.490600E+01
993345,+2.489800E+01
993357,+2.490600E+01
993369,+2.490000E+01
993381,+2.490400E+01
993393,+2.490600E+01
993405,+2.489900E+01
993417,+2.490600E+01
993429,+2.489800E+01
993441,+2.489900E+01
993453,+2.490600E+01
993465,+2.490000E+01
993477,+2.490400E+01
993489,+2.490300E+01
993501,+2.490100E+01
993513,+2.490400E+01
993525,+2.489800E+01
993537,+2.490300E+01
993549,+2.490300E+01
993561,+2.490000E+01
993573,+2.490500E+01
993585,+2.489900E+01
993597,+2.490600E+01
993609,+2.490000E+01
993621,+2.490100E+01
993633,+2.490400E+01
993645,+2.490000E+01
993657,+2.490500E+01
993669,+2.490200E+01
993681,+2.489800E+01
993693,+2.490600E+01
993705,+2.489900E+01
993717,+2.490700E+01
993729,+2.490400E+01
993741,+2.490100E+01
993753,+2.490600E+01
993765,+2.489900E+01
993777,+2.490500E+01
993789,+2.490000E+01
993801,+2.490100E+01
993813,+2.491000E+01
993825,+2.490300E+01
993837,+2.490700E+01
993849,+2.490100E+01
993861,+2.490300E+01
993873,+2.490600E+01
993885,+2.489900E+01
993897,+2.490500E+01
993909,+2.490200E+01
993921,+2.490300E+01
993933,+2.490600E+01
993945,+2.490000E+01
993957,+2.490600E+01
993969,+2.490000E+01
993981,+2.490600E+01
993993,+2.490500E+01
994005,+2.489900E+01
994017,+2.490500E+01
994029,+2.490300E+01
994041,+2.490000E+01
994053,+2.490400E+01
994065,+2.490300E+01
994077,+2.490300E+01
994089,+2.490400E+01
994101,+2.490300E+01
994113,+2.490700E+01
994125,+2.490200E+01
994137,+2.490700E+01
994149,+2.490000E+01
994161,+2.490600E+01
994173,+2.490700E+01
994185,+2.490000E+01
994197,+2.490500E+01
994209,+2.490100E+01
994221,+2.490400E+01
994233,+2.490600E+01
994245,+2.490000E+01
994257,+2.490600E+01
994269,+2.490400E+01
994281,+2.490400E+01
994293,+2.490900E+01
994305,+2.490600E+01
994317,+2.490600E+01
994329,+2.490300E+01
994341,+2.490300E+01
994353,+2.490700E+01
994365,+2.490100E+01
994377,+2.490600E+01
994389,+2.490600E+01
994401,+2.490400E+01
994413,+2.490700E+01
994425,+2.490300E+01
994437,+2.490500E+01
994449,+2.490300E+01
994461,+2.490600E+01
994473,+2.490800E+01
994485,+2.490300E+01
994497,+2.490700E+01
994509,+2.490200E+01
994521,+2.490000E+01
994533,+2.490800E+01
994545,+2.490100E+01
994557,+2.490800E+01
994569,+2.490300E+01
994581,+2.490500E+01
994593,+2.490700E+01
994605,+2.490200E+01
994617,+2.491000E+01
994629,+2.490500E+01
994641,+2.490300E+01
994653,+2.490600E+01
994665,+2.489900E+01
994677,+2.490800E+01
994689,+2.490300E+01
994701,+2.490700E+01
994713,+2.490600E+01
994725,+2.490500E+01
994737,+2.491000E+01
994749,+2.490200E+01
994761,+2.490600E+01
994773,+2.490900E+01
994785,+2.490100E+01
994797,+2.490800E+01
994809,+2.490200E+01
994821,+2.490600E+01
994833,+2.490800E+01
994845,+2.490500E+01
994857,+2.490800E+01
994869,+2.490300E+01
994881,+2.490500E+01
994893,+2.490800E+01
994905,+2.490200E+01
994917,+2.490700E+01
994929,+2.490300E+01
994941,+2.490400E+01
994953,+2.490800E+01
994965,+2.490100E+01
994977,+2.490900E+01
994989,+2.490100E+01
995001,+2.490400E+01
995013,+2.490800E+01
995025,+2.490200E+01
995037,+2.491000E+01
995049,+2.490600E+01
995061,+2.490400E+01
995073,+2.491100E+01
995085,+2.490300E+01
995097,+2.490700E+01
995109,+2.490200E+01
995121,+2.490600E+01
995133,+2.491100E+01
995145,+2.490200E+01
995157,+2.490600E+01
995169,+2.490300E+01
995181,+2.490800E+01
995193,+2.490700E+01
995205,+2.490300E+01
995217,+2.490900E+01
995229,+2.490500E+01
995241,+2.490600E+01
995253,+2.490900E+01
995265,+2.490300E+01
995277,+2.491000E+01
995289,+2.490400E+01
995301,+2.490600E+01
995313,+2.491000E+01
995325,+2.490400E+01
995337,+2.490900E+01
995349,+2.490600E+01
995361,+2.490600E+01
995373,+2.490700E+01
995385,+2.490500E+01
995397,+2.490800E+01
995409,+2.490400E+01
995421,+2.490400E+01
995433,+2.491000E+01
995445,+2.490200E+01
995457,+2.491000E+01
995469,+2.490600E+01
995481,+2.490600E+01
995493,+2.490700E+01
995505,+2.490400E+01
995517,+2.490800E+01
995529,+2.490800E+01
995541,+2.490400E+01
995553,+2.491100E+01
995565,+2.490400E+01
995577,+2.490900E+01
995589,+2.490500E+01
995601,+2.490500E+01
995613,+2.491000E+01
995625,+2.490500E+01
995637,+2.491000E+01
995649,+2.490600E+01
995661,+2.490600E+01
995673,+2.490800E+01
995685,+2.490500E+01
995697,+2.491000E+01
995709,+2.490400E+01
995721,+2.490900E+01
995733,+2.491200E+01
995745,+2.490400E+01
995757,+2.491100E+01
995769,+2.490400E+01
995781,+2.490600E+01
995793,+2.490900E+01
995805,+2.490400E+01
995817,+2.491300E+01
995829,+2.490600E+01
995841,+2.490700E+01
995853,+2.490900E+01
995865,+2.490600E+01
995877,+2.491200E+01
995889,+2.490400E+01
995901,+2.491100E+01
995913,+2.491300E+01
995925,+2.490500E+01
995937,+2.490900E+01
995949,+2.490600E+01
995961,+2.491000E+01
995973,+2.491000E+01
995985,+2.490700E+01
995997,+2.491000E+01
996009,+2.490500E+01
996021,+2.491000E+01
996033,+2.490800E+01
996045,+2.490600E+01
996057,+2.491000E+01
996069,+2.490600E+01
996081,+2.491100E+01
996093,+2.491000E+01
996105,+2.490700E+01
996117,+2.491300E+01
996129,+2.490500E+01
996141,+2.490700E+01
996153,+2.490900E+01
996165,+2.490800E+01
996177,+2.491200E+01
996189,+2.490800E+01
996201,+2.490900E+01
996213,+2.491200E+01
996225,+2.490700E+01
996237,+2.491200E+01
996249,+2.490900E+01
996261,+2.490800E+01
996273,+2.491000E+01
996285,+2.490700E+01
996297,+2.491300E+01
996309,+2.490700E+01
996321,+2.491200E+01
996333,+2.491300E+01
996345,+2.490600E+01
996357,+2.491300E+01
996369,+2.490700E+01
996381,+2.491200E+01
996393,+2.491300E+01
996405,+2.490600E+01
996417,+2.491500E+01
996429,+2.490800E+01
996441,+2.490800E+01
996453,+2.491200E+01
996465,+2.490300E+01
996477,+2.491400E+01
996489,+2.490900E+01
996501,+2.491300E+01
996513,+2.491000E+01
996525,+2.490800E+01
996537,+2.491200E+01
996549,+2.490700E+01
996561,+2.491200E+01
996573,+2.491100E+01
996585,+2.490900E+01
996597,+2.491400E+01
996609,+2.490700E+01
996621,+2.491100E+01
996633,+2.491200E+01
996645,+2.490600E+01
996657,+2.491300E+01
996669,+2.490700E+01
996681,+2.491200E+01
996693,+2.491300E+01
996705,+2.491000E+01
996717,+2.491400E+01
996729,+2.490700E+01
996741,+2.491000E+01
996753,+2.491300E+01
996765,+2.490800E+01
996777,+2.491600E+01
996789,+2.490800E+01
996801,+2.491200E+01
996813,+2.491300E+01
996825,+2.490900E+01
996837,+2.491600E+01
996849,+2.491000E+01
996861,+2.490900E+01
996873,+2.491100E+01
996885,+2.490900E+01
996897,+2.491400E+01
996909,+2.490800E+01
996921,+2.491100E+01
996933,+2.491100E+01
996945,+2.490700E+01
996957,+2.491300E+01
996969,+2.490900E+01
996981,+2.491300E+01
996993,+2.491000E+01
997005,+2.490600E+01
997017,+2.491400E+01
997029,+2.491100E+01
997041,+2.491400E+01
997053,+2.491100E+01
997065,+2.490800E+01
997077,+2.491400E+01
997089,+2.491000E+01
997101,+2.491300E+01
997113,+2.491600E+01
997125,+2.490700E+01
997137,+2.491600E+01
997149,+2.490700E+01
997161,+2.491200E+01
997173,+2.491300E+01
997185,+2.490900E+01
997197,+2.491500E+01
997209,+2.491000E+01
997221,+2.491100E+01
997233,+2.491300E+01
997245,+2.491000E+01
997257,+2.491400E+01
997269,+2.491100E+01
997281,+2.491200E+01
997293,+2.491400E+01
997305,+2.491100E+01
997317,+2.491400E+01
997329,+2.491000E+01
997341,+2.491300E+01
997353,+2.491300E+01
997365,+2.491100E+01
997377,+2.491600E+01
997389,+2.490900E+01
997401,+2.491400E+01
997413,+2.491400E+01
997425,+2.491300E+01
997437,+2.491800E+01
997449,+2.491100E+01
997461,+2.491300E+01
997473,+2.491500E+01
997485,+2.491000E+01
997497,+2.491300E+01
997509,+2.491200E+01
997521,+2.491400E+01
997533,+2.491200E+01
997545,+2.490900E+01
997557,+2.491400E+01
997569,+2.491100E+01
997581,+2.491500E+01
997593,+2.491200E+01
997605,+2.491100E+01
997617,+2.491700E+01
997629,+2.490800E+01
997641,+2.491600E+01
997653,+2.491300E+01
997665,+2.491200E+01
997677,+2.491500E+01
997689,+2.490900E+01
997701,+2.491400E+01
997713,+2.491400E+01
997725,+2.491000E+01
997737,+2.491800E+01
997749,+2.490900E+01
997761,+2.491400E+01
997773,+2.491500E+01
997785,+2.490900E+01
997797,+2.491700E+01
997809,+2.491000E+01
997821,+2.491900E+01
997833,+2.491000E+01
997845,+2.491100E+01
997857,+2.491600E+01
997869,+2.491100E+01
997881,+2.491500E+01
997893,+2.491300E+01
997905,+2.491300E+01
997917,+2.491600E+01
997929,+2.491000E+01
997941,+2.491000E+01
997953,+2.491200E+01
997965,+2.491100E+01
997977,+2.491600E+01
997989,+2.491100E+01
998001,+2.491500E+01
998013,+2.491300E+01
998025,+2.491200E+01
998037,+2.491800E+01
998049,+2.490900E+01
998061,+2.491400E+01
998073,+2.491100E+01
998085,+2.491400E+01
998097,+2.491600E+01
998109,+2.491100E+01
998121,+2.491500E+01
998133,+2.491500E+01
998145,+2.491200E+01
998157,+2.491500E+01
998169,+2.491100E+01
998181,+2.491600E+01
998193,+2.491600E+01
998205,+2.491300E+01
998217,+2.491600E+01
998229,+2.491100E+01
998241,+2.491600E+01
998253,+2.491400E+01
998265,+2.491200E+01
998277,+2.491600E+01
998289,+2.490900E+01
998301,+2.491700E+01
998313,+2.491100E+01
998325,+2.491400E+01
998337,+2.491800E+01
998349,+2.491300E+01
998361,+2.491600E+01
998373,+2.491400E+01
998385,+2.491200E+01
998397,+2.491600E+01
998409,+2.491200E+01
998421,+2.491700E+01
998433,+2.491400E+01
998445,+2.491300E+01
998457,+2.491700E+01
998469,+2.491200E+01
998481,+2.491500E+01
998493,+2.491400E+01
998505,+2.491000E+01
998517,+2.491500E+01
998529,+2.491100E+01
998541,+2.492000E+01
998553,+2.491400E+01
998565,+2.491400E+01
998577,+2.491900E+01
998589,+2.491400E+01
998601,+2.491800E+01
998613,+2.491500E+01
998625,+2.491600E+01
998637,+2.491600E+01
998649,+2.491000E+01
998661,+2.491600E+01
998673,+2.491500E+01
998685,+2.491500E+01
998697,+2.491800E+01
998709,+2.491500E+01
998721,+2.491500E+01
998733,+2.491600E+01
998745,+2.491400E+01
998757,+2.492100E+01
998769,+2.491300E+01
998781,+2.491800E+01
998793,+2.491600E+01
998805,+2.491300E+01
998817,+2.491900E+01
998829,+2.491200E+01
998841,+2.491600E+01
998853,+2.491500E+01
998865,+2.491500E+01
998877,+2.492000E+01
998889,+2.491300E+01
998901,+2.491700E+01
998913,+2.491500E+01
998925,+2.491600E+01
998937,+2.491800E+01
998949,+2.491100E+01
998961,+2.491900E+01
998973,+2.491600E+01
998985,+2.491500E+01
998997,+2.492400E+01
999009,+2.491300E+01
999021,+2.491800E+01
999033,+2.491500E+01
999045,+2.491500E+01
999057,+2.491900E+01
999069,+2.491300E+01
999081,+2.491600E+01
999093,+2.491500E+01
999105,+2.491500E+01
999117,+2.492000E+01
999129,+2.491500E+01
999141,+2.491600E+01
999153,+2.491600E+01
999165,+2.491700E+01
999177,+2.492000E+01
999189,+2.491600E+01
999201,+2.492200E+01
999213,+2.491800E+01
999225,+2.491600E+01
999237,+2.492200E+01
999249,+2.491400E+01
999261,+2.492000E+01
999273,+2.491700E+01
999285,+2.491500E+01
999297,+2.491900E+01
999309,+2.491600E+01
999321,+2.491900E+01
999333,+2.491700E+01
999345,+2.491800E+01
999357,+2.492100E+01
999369,+2.491600E+01
999381,+2.492000E+01
999393,+2.491700E+01
999405,+2.491700E+01
999417,+2.491900E+01
999429,+2.491400E+01
999441,+2.492200E+01
999453,+2.491800E+01
999465,+2.491600E+01
999477,+2.492300E+01
999489,+2.491500E+01
999501,+2.492200E+01
999513,+2.491700E+01
999525,+2.491600E+01
999537,+2.492200E+01
999549,+2.491700E+01
999561,+2.492000E+01
999573,+2.491600E+01
999585,+2.491800E+01
999597,+2.491900E+01
999609,+2.491300E+01
999621,+2.492100E+01
999633,+2.491600E+01
999645,+2.491600E+01
999657,+2.492200E+01
999669,+2.491600E+01
999681,+2.492100E+01
999693,+2.491600E+01
999705,+2.491800E+01
999717,+2.492200E+01
999729,+2.491500E+01
999741,+2.491900E+01
999753,+2.491800E+01
999765,+2.491700E+01
999777,+2.492300E+01
999789,+2.491400E+01
999801,+2.492000E+01
999813,+2.491600E+01
999825,+2.491800E+01
999837,+2.492200E+01
999849,+2.491100E+01
999861,+2.492200E+01
999873,+2.491900E+01
999885,+2.491700E+01
999897,+2.492100E+01
999909,+2.491900E+01
999921,+2.492000E+01
999933,+2.491800E+01
999945,+2.491800E+01
999957,+2.492300E+01
999969,+2.491500E+01
999981,+2.491900E+01
999993,+2.491600E+01
1000005,+2.492100E+01
1000017,+2.492500E+01
1000029,+2.491700E+01
1000041,+2.492100E+01
1000053,+2.491900E+01
1000065,+2.491600E+01
1000077,+2.492100E+01
1000089,+2.491600E+01
1000101,+2.492200E+01
1000113,+2.491800E+01
1000125,+2.491900E+01
1000137,+2.492100E+01
1000149,+2.491600E+01
1000161,+2.492200E+01
1000173,+2.491700E+01
1000185,+2.491900E+01
1000197,+2.492300E+01
1000209,+2.491700E+01
1000221,+2.492200E+01
1000233,+2.491800E+01
1000245,+2.492000E+01
1000257,+2.492200E+01
1000269,+2.491600E+01
1000281,+2.492200E+01
1000293,+2.492100E+01
1000305,+2.492000E+01
1000317,+2.492200E+01
1000329,+2.491700E+01
1000341,+2.492200E+01
1000353,+2.491800E+01
1000365,+2.491900E+01
1000377,+2.492300E+01
1000389,+2.491800E+01
1000401,+2.492200E+01
1000413,+2.491800E+01
1000425,+2.491900E+01
1000437,+2.492400E+01
1000449,+2.491900E+01
1000461,+2.492200E+01
1000473,+2.491900E+01
1000485,+2.492000E+01
1000497,+2.492200E+01
1000509,+2.491700E+01
1000521,+2.492000E+01
1000533,+2.491800E+01
1000545,+2.491900E+01
1000557,+2.492500E+01
1000569,+2.491800E+01
1000581,+2.492100E+01
1000593,+2.491800E+01
1000605,+2.491900E+01
1000617,+2.492400E+01
1000629,+2.491800E+01
1000641,+2.492100E+01
1000653,+2.492000E+01
1000665,+2.492100E+01
1000677,+2.492400E+01
1000689,+2.491700E+01
1000701,+2.492600E+01
1000713,+2.492200E+01
1000725,+2.492000E+01
1000737,+2.492200E+01
1000749,+2.491700E+01
1000761,+2.492000E+01
1000773,+2.491600E+01
1000785,+2.492100E+01
1000797,+2.492300E+01
1000809,+2.491800E+01
1000821,+2.492300E+01
1000833,+2.491900E+01
1000845,+2.492100E+01
1000857,+2.492500E+01
1000869,+2.491800E+01
1000881,+2.492500E+01
1000893,+2.491800E+01
1000905,+2.492000E+01
1000917,+2.492200E+01
1000929,+2.491400E+01
1000941,+2.492100E+01
1000953,+2.491900E+01
1000965,+2.492100E+01
1000977,+2.492300E+01
1000989,+2.492000E+01
1001001,+2.491900E+01
1001013,+2.491900E+01
1001025,+2.492000E+01
1001037,+2.492300E+01
1001049,+2.492100E+01
1001061,+2.492400E+01
1001073,+2.491900E+01
1001085,+2.492100E+01
1001097,+2.492400E+01
1001109,+2.491500E+01
1001121,+2.492300E+01
1001133,+2.492200E+01
1001145,+2.492200E+01
1001157,+2.492500E+01
1001169,+2.492000E+01
1001181,+2.492300E+01
1001193,+2.492100E+01
1001205,+2.492100E+01
1001217,+2.492300E+01
1001229,+2.491900E+01
1001241,+2.492700E+01
1001253,+2.492100E+01
1001265,+2.492300E+01
1001277,+2.492300E+01
1001289,+2.492100E+01
1001301,+2.492700E+01
1001313,+2.491800E+01
1001325,+2.492200E+01
1001337,+2.492500E+01
1001349,+2.491900E+01
1001361,+2.492700E+01
1001373,+2.492200E+01
1001385,+2.492400E+01
1001397,+2.492700E+01
1001409,+2.492300E+01
1001421,+2.492500E+01
1001433,+2.492100E+01
1001445,+2.492100E+01
1001457,+2.492600E+01
1001469,+2.492000E+01
1001481,+2.492500E+01
1001493,+2.492200E+01
1001505,+2.492300E+01
1001517,+2.492600E+01
1001529,+2.491900E+01
1001541,+2.492500E+01
1001553,+2.492100E+01
1001565,+2.492200E+01
1001577,+2.492500E+01
1001589,+2.492100E+01
1001601,+2.492400E+01
1001613,+2.492200E+01
1001625,+2.492400E+01
1001637,+2.492600E+01
1001649,+2.492100E+01
1001661,+2.492600E+01
1001673,+2.492000E+01
1001685,+2.492300E+01
1001697,+2.492700E+01
1001709,+2.492200E+01
1001721,+2.492900E+01
1001733,+2.491800E+01
1001745,+2.492200E+01
1001757,+2.492300E+01
1001769,+2.492100E+01
1001781,+2.492500E+01
1001793,+2.492300E+01
1001805,+2.492300E+01
1001817,+2.492800E+01
1001829,+2.492100E+01
1001841,+2.492700E+01
1001853,+2.492000E+01
1001865,+2.492400E+01
1001877,+2.492900E+01
1001889,+2.492300E+01
1001901,+2.492700E+01
1001913,+2.492200E+01
1001925,+2.492400E+01
1001937,+2.492600E+01
1001949,+2.492200E+01
1001961,+2.492400E+01
1001973,+2.492600E+01
1001985,+2.492000E+01
1001997,+2.492600E+01
1002009,+2.492300E+01
1002021,+2.492700E+01
1002033,+2.492400E+01
1002045,+2.492400E+01
1002057,+2.492700E+01
1002069,+2.492200E+01
1002081,+2.492800E+01
1002093,+2.492400E+01
1002105,+2.492500E+01
1002117,+2.492700E+01
1002129,+2.492400E+01
1002141,+2.492700E+01
1002153,+2.492300E+01
1002165,+2.492500E+01
1002177,+2.493000E+01
1002189,+2.492300E+01
1002201,+2.493100E+01
1002213,+2.492200E+01
1002225,+2.492500E+01
1002237,+2.493100E+01
1002249,+2.492400E+01
1002261,+2.492800E+01
1002273,+2.492700E+01
1002285,+2.492400E+01
1002297,+2.492700E+01
1002309,+2.492100E+01
1002321,+2.492900E+01
1002333,+2.492500E+01
1002345,+2.492400E+01
1002357,+2.492700E+01
1002369,+2.492600E+01
1002381,+2.492900E+01
1002393,+2.492500E+01
1002405,+2.492500E+01
1002417,+2.492800E+01
1002429,+2.492300E+01
1002441,+2.492800E+01
1002453,+2.492500E+01
1002465,+2.492700E+01
1002477,+2.492900E+01
1002489,+2.492100E+01
1002501,+2.493200E+01
1002513,+2.492300E+01
1002525,+2.492800E+01
1002537,+2.493200E+01
1002549,+2.492500E+01
1002561,+2.492800E+01
1002573,+2.492500E+01
1002585,+2.492500E+01
1002597,+2.493000E+01
1002609,+2.492300E+01
1002621,+2.493000E+01
1002633,+2.492500E+01
1002645,+2.492800E+01
1002657,+2.493000E+01
1002669,+2.492500E+01
1002681,+2.493000E+01
1002693,+2.492500E+01
1002705,+2.492900E+01
1002717,+2.492900E+01
1002729,+2.492600E+01
1002741,+2.492700E+01
1002753,+2.492700E+01
1002765,+2.492400E+01
1002777,+2.492900E+01
1002789,+2.492400E+01
1002801,+2.493000E+01
1002813,+2.492500E+01
1002825,+2.492800E+01
1002837,+2.493000E+01
1002849,+2.492600E+01
1002861,+2.492800E+01
1002873,+2.492700E+01
1002885,+2.492800E+01
1002897,+2.493100E+01
1002909,+2.492400E+01
1002921,+2.493100E+01
1002933,+2.492500E+01
1002945,+2.492800E+01
1002957,+2.493000E+01
1002969,+2.492600E+01
1002981,+2.493500E+01
1002993,+2.492400E+01
1003005,+2.492800E+01
1003017,+2.493100E+01
1003029,+2.492500E+01
1003041,+2.493100E+01
1003053,+2.492600E+01
1003065,+2.492700E+01
1003077,+2.492900E+01
1003089,+2.492700E+01
1003101,+2.492900E+01
1003113,+2.492600E+01
1003125,+2.492700E+01
1003137,+2.493300E+01
1003149,+2.492300E+01
1003161,+2.493200E+01
1003173,+2.492800E+01
1003185,+2.492800E+01
1003197,+2.492900E+01
1003209,+2.492600E+01
1003221,+2.493100E+01
1003233,+2.492400E+01
1003245,+2.493000E+01
1003257,+2.493200E+01
1003269,+2.492700E+01
1003281,+2.492900E+01
1003293,+2.492700E+01
1003305,+2.493200E+01
1003317,+2.493000E+01
1003329,+2.492600E+01
1003341,+2.493300E+01
1003353,+2.492800E+01
1003365,+2.493100E+01
1003377,+2.493200E+01
1003389,+2.492700E+01
1003401,+2.493500E+01
1003413,+2.493000E+01
1003425,+2.493200E+01
1003437,+2.493100E+01
1003449,+2.492800E+01
1003461,+2.493300E+01
1003473,+2.492700E+01
1003485,+2.493100E+01
1003497,+2.493200E+01
1003509,+2.492700E+01
1003521,+2.493300E+01
1003533,+2.492800E+01
1003545,+2.493000E+01
1003557,+2.493400E+01
1003569,+2.493000E+01
1003581,+2.493700E+01
1003593,+2.492600E+01
1003605,+2.493200E+01
1003617,+2.493200E+01
1003629,+2.492600E+01
1003641,+2.493200E+01
1003653,+2.492700E+01
1003665,+2.493100E+01
1003677,+2.493300E+01
1003689,+2.492900E+01
1003701,+2.493500E+01
1003713,+2.492900E+01
1003725,+2.493400E+01
1003737,+2.493300E+01
1003749,+2.493000E+01
1003761,+2.493700E+01
1003773,+2.493100E+01
1003785,+2.493200E+01
1003797,+2.493300E+01
1003809,+2.492900E+01
1003821,+2.493600E+01
1003833,+2.492700E+01
1003845,+2.493100E+01
1003857,+2.493400E+01
1003869,+2.492900E+01
1003881,+2.493500E+01
1003893,+2.493000E+01
1003905,+2.493300E+01
1003917,+2.493300E+01
1003929,+2.493200E+01
1003941,+2.493800E+01
1003953,+2.493100E+01
1003965,+2.493400E+01
1003977,+2.493500E+01
1003989,+2.493000E+01
1004001,+2.493700E+01
1004013,+2.492900E+01
1004025,+2.493400E+01
1004037,+2.493500E+01
1004049,+2.492900E+01
1004061,+2.493500E+01
1004073,+2.493000E+01
1004085,+2.493400E+01
1004097,+2.493600E+01
1004109,+2.493000E+01
1004121,+2.493500E+01
1004133,+2.493100E+01
1004145,+2.493300E+01
1004157,+2.493400E+01
1004169,+2.493300E+01
1004181,+2.493600E+01
1004193,+2.493000E+01
1004205,+2.493600E+01
1004217,+2.493000E+01
1004229,+2.492900E+01
1004241,+2.493500E+01
1004253,+2.493000E+01
1004265,+2.493300E+01
1004277,+2.493500E+01
1004289,+2.493100E+01
1004301,+2.493700E+01
1004313,+2.493200E+01
1004325,+2.493400E+01
1004337,+2.493200E+01
1004349,+2.493200E+01
1004361,+2.493800E+01
1004373,+2.492800E+01
1004385,+2.493100E+01
1004397,+2.493400E+01
1004409,+2.493300E+01
1004421,+2.493600E+01
1004433,+2.493000E+01
1004445,+2.493700E+01
1004457,+2.493400E+01
1004469,+2.492900E+01
1004481,+2.493700E+01
1004493,+2.493200E+01
1004505,+2.493400E+01
1004517,+2.493500E+01
1004529,+2.493000E+01
1004541,+2.493800E+01
1004553,+2.492900E+01
1004565,+2.493600E+01
1004577,+2.493600E+01
1004589,+2.493500E+01
1004601,+2.493600E+01
1004613,+2.493100E+01
1004625,+2.493500E+01
1004637,+2.493400E+01
1004649,+2.493200E+01
1004661,+2.493300E+01
1004673,+2.493200E+01
1004685,+2.493500E+01
1004697,+2.493500E+01
1004709,+2.493200E+01
1004721,+2.493900E+01
1004733,+2.493200E+01
1004745,+2.493600E+01
1004757,+2.493700E+01
1004769,+2.493200E+01
1004781,+2.493900E+01
1004793,+2.493200E+01
1004805,+2.493700E+01
1004817,+2.493600E+01
1004829,+2.493200E+01
1004841,+2.493600E+01
1004853,+2.493100E+01
1004865,+2.493500E+01
1004877,+2.493600E+01
1004889,+2.493200E+01
1004901,+2.493700E+01
1004913,+2.493500E+01
1004925,+2.493700E+01
1004937,+2.493700E+01
1004949,+2.492900E+01
1004961,+2.493800E+01
1004973,+2.493200E+01
1004985,+2.493400E+01
1004997,+2.493700E+01
1005009,+2.493200E+01
1005021,+2.493700E+01
1005033,+2.493300E+01
1005045,+2.493500E+01
1005057,+2.493500E+01
1005069,+2.493300E+01
1005081,+2.493700E+01
1005093,+2.493500E+01
1005105,+2.493600E+01
1005117,+2.493700E+01
1005129,+2.493300E+01
1005141,+2.493500E+01
1005153,+2.493000E+01
1005165,+2.493300E+01
1005177,+2.493700E+01
1005189,+2.493200E+01
1005201,+2.494000E+01
1005213,+2.493200E+01
1005225,+2.493900E+01
1005237,+2.493700E+01
1005249,+2.493500E+01
1005261,+2.493900E+01
1005273,+2.493100E+01
1005285,+2.493400E+01
1005297,+2.493500E+01
1005309,+2.493200E+01
1005321,+2.493900E+01
1005333,+2.493200E+01
1005345,+2.493500E+01
1005357,+2.493500E+01
1005369,+2.493500E+01
1005381,+2.493900E+01
1005393,+2.493100E+01
1005405,+2.493700E+01
1005417,+2.493500E+01
1005429,+2.493400E+01
1005441,+2.493800E+01
1005453,+2.493600E+01
1005465,+2.493600E+01
1005477,+2.494100E+01
1005489,+2.493200E+01
1005501,+2.494100E+01
1005513,+2.493200E+01
1005525,+2.493600E+01
1005537,+2.493800E+01
1005549,+2.493300E+01
1005561,+2.494000E+01
1005573,+2.493300E+01
1005585,+2.493700E+01
1005597,+2.493600E+01
1005609,+2.493300E+01
1005621,+2.494000E+01
1005633,+2.493200E+01
1005645,+2.493700E+01
1005657,+2.493700E+01
1005669,+2.493600E+01
1005681,+2.493700E+01
1005693,+2.493500E+01
1005705,+2.493700E+01
1005717,+2.493800E+01
1005729,+2.493600E+01
1005741,+2.493800E+01
1005753,+2.493500E+01
1005765,+2.493700E+01
1005777,+2.494000E+01
1005789,+2.493600E+01
1005801,+2.494200E+01
1005813,+2.493300E+01
1005825,+2.493700E+01
1005837,+2.493600E+01
1005849,+2.493600E+01
1005861,+2.494200E+01
1005873,+2.493700E+01
1005885,+2.493800E+01
1005897,+2.493900E+01
1005909,+2.493600E+01
1005921,+2.494100E+01
1005933,+2.493700E+01
1005945,+2.494100E+01
1005957,+2.493800E+01
1005969,+2.493500E+01
1005981,+2.493900E+01
1005993,+2.493500E+01
1006005,+2.494200E+01
1006017,+2.493700E+01
1006029,+2.493600E+01
1006041,+2.494300E+01
1006053,+2.493700E+01
1006065,+2.494100E+01
1006077,+2.494100E+01
1006089,+2.493600E+01
1006101,+2.494100E+01
1006113,+2.493700E+01
1006125,+2.493900E+01
1006137,+2.494000E+01
1006149,+2.493700E+01
1006161,+2.494300E+01
1006173,+2.493400E+01
1006185,+2.494100E+01
1006197,+2.493900E+01
1006209,+2.493600E+01
1006221,+2.494100E+01
1006233,+2.493400E+01
1006245,+2.494000E+01
1006257,+2.493600E+01
1006269,+2.493600E+01
1006281,+2.494200E+01
1006293,+2.493500E+01
1006305,+2.493900E+01
1006317,+2.494000E+01
1006329,+2.493700E+01
1006341,+2.494300E+01
1006353,+2.493600E+01
1006365,+2.494100E+01
1006377,+2.494100E+01
1006389,+2.493700E+01
1006401,+2.494200E+01
1006413,+2.493700E+01
1006425,+2.494000E+01
1006437,+2.494100E+01
1006449,+2.494000E+01
1006461,+2.494300E+01
1006473,+2.493700E+01
1006485,+2.493900E+01
1006497,+2.494200E+01
1006509,+2.493700E+01
1006521,+2.494100E+01
1006533,+2.493500E+01
1006545,+2.494100E+01
1006557,+2.494200E+01
1006569,+2.493600E+01
1006581,+2.494300E+01
1006593,+2.493900E+01
1006605,+2.494400E+01
1006617,+2.494000E+01
1006629,+2.493700E+01
1006641,+2.494300E+01
1006653,+2.493900E+01
1006665,+2.494500E+01
1006677,+2.493800E+01
1006689,+2.494100E+01
1006701,+2.494300E+01
1006713,+2.493400E+01
1006725,+2.494200E+01
1006737,+2.494000E+01
1006749,+2.493700E+01
1006761,+2.494300E+01
1006773,+2.493900E+01
1006785,+2.493800E+01
1006797,+2.494200E+01
1006809,+2.494000E+01
1006821,+2.494300E+01
1006833,+2.493600E+01
1006845,+2.494000E+01
1006857,+2.494200E+01
1006869,+2.493900E+01
1006881,+2.494500E+01
1006893,+2.494000E+01
1006905,+2.494400E+01
1006917,+2.493800E+01
1006929,+2.494100E+01
1006941,+2.494600E+01
1006953,+2.494000E+01
1006965,+2.494300E+01
1006977,+2.494300E+01
1006989,+2.494000E+01
1007001,+2.494400E+01
1007013,+2.493600E+01
1007025,+2.494200E+01
1007037,+2.493900E+01
1007049,+2.494200E+01
1007061,+2.494200E+01
1007073,+2.493400E+01
1007085,+2.494200E+01
1007097,+2.494200E+01
1007109,+2.494000E+01
1007121,+2.494400E+01
1007133,+2.493900E+01
1007145,+2.494300E+01
1007157,+2.494400E+01
1007169,+2.494000E+01
1007181,+2.494500E+01
1007193,+2.493700E+01
1007205,+2.494500E+01
1007217,+2.494200E+01
1007229,+2.494200E+01
1007241,+2.494600E+01
1007253,+2.494000E+01
1007265,+2.494500E+01
1007277,+2.494000E+01
1007289,+2.494200E+01
1007301,+2.494400E+01
1007313,+2.493700E+01
1007325,+2.494500E+01
1007337,+2.494300E+01
1007349,+2.494200E+01
1007361,+2.494500E+01
1007373,+2.493700E+01
1007385,+2.494300E+01
1007397,+2.494200E+01
1007409,+2.494200E+01
1007421,+2.494400E+01
1007433,+2.494200E+01
1007445,+2.494300E+01
1007457,+2.494100E+01
1007469,+2.494100E+01
1007481,+2.494600E+01
1007493,+2.494200E+01
1007505,+2.494600E+01
1007517,+2.494300E+01
1007529,+2.494100E+01
1007541,+2.494700E+01
1007553,+2.494300E+01
1007565,+2.494500E+01
1007577,+2.494100E+01
1007589,+2.494300E+01
1007601,+2.494800E+01
1007613,+2.494100E+01
1007625,+2.494300E+01
1007637,+2.494300E+01
1007649,+2.494300E+01
1007661,+2.494600E+01
1007673,+2.493900E+01
1007685,+2.494500E+01
1007697,+2.494100E+01
1007709,+2.494200E+01
1007721,+2.494900E+01
1007733,+2.494000E+01
1007745,+2.494600E+01
1007757,+2.494200E+01
1007769,+2.494200E+01
1007781,+2.494700E+01
1007793,+2.494000E+01
1007805,+2.494400E+01
1007817,+2.494500E+01
1007829,+2.494100E+01
1007841,+2.494800E+01
1007853,+2.493900E+01
1007865,+2.494700E+01
1007877,+2.494500E+01
1007889,+2.494100E+01
1007901,+2.494900E+01
1007913,+2.494200E+01
1007925,+2.494300E+01
1007937,+2.494400E+01
1007949,+2.494300E+01
1007961,+2.494700E+01
1007973,+2.494100E+01
1007985,+2.494600E+01
1007997,+2.494200E+01
1008009,+2.494300E+01
1008021,+2.494700E+01
1008033,+2.494000E+01
1008045,+2.494800E+01
1008057,+2.494200E+01
1008069,+2.494400E+01
1008081,+2.494800E+01
1008093,+2.494200E+01
1008105,+2.494700E+01
1008117,+2.494300E+01
1008129,+2.494500E+01
1008141,+2.494800E+01
1008153,+2.494000E+01
1008165,+2.494600E+01
1008177,+2.494300E+01
1008189,+2.494500E+01
1008201,+2.494700E+01
1008213,+2.494100E+01
1008225,+2.494600E+01
1008237,+2.494400E+01
1008249,+2.494300E+01
1008261,+2.494600E+01
1008273,+2.493700E+01
1008285,+2.494600E+01
1008297,+2.494400E+01
1008309,+2.494100E+01
1008321,+2.494600E+01
1008333,+2.494100E+01
1008345,+2.494700E+01
1008357,+2.494300E+01
1008369,+2.494200E+01
1008381,+2.494800E+01
1008393,+2.494300E+01
1008405,+2.494500E+01
1008417,+2.494300E+01
1008429,+2.494400E+01
1008441,+2.495000E+01
1008453,+2.493700E+01
1008465,+2.494800E+01
1008477,+2.494300E+01
1008489,+2.494500E+01
1008501,+2.494800E+01
1008513,+2.494200E+01
1008525,+2.494800E+01
1008537,+2.494200E+01
1008549,+2.494400E+01
1008561,+2.495000E+01
1008573,+2.494300E+01
1008585,+2.494500E+01
1008597,+2.494500E+01
1008609,+2.494400E+01
1008621,+2.494800E+01
1008633,+2.494500E+01
1008645,+2.494500E+01
1008657,+2.494300E+01
1008669,+2.494400E+01
1008681,+2.494600E+01
1008693,+2.493900E+01
1008705,+2.494400E+01
1008717,+2.494300E+01
1008729,+2.494400E+01
1008741,+2.494700E+01
1008753,+2.494400E+01
1008765,+2.494700E+01
1008777,+2.494300E+01
1008789,+2.494600E+01
1008801,+2.495000E+01
1008813,+2.494300E+01
1008825,+2.494600E+01
1008837,+2.494200E+01
1008849,+2.494400E+01
1008861,+2.495000E+01
1008873,+2.494100E+01
1008885,+2.494800E+01
1008897,+2.494300E+01
1008909,+2.494500E+01
1008921,+2.494800E+01
1008933,+2.494100E+01
1008945,+2.494900E+01
1008957,+2.494000E+01
1008969,+2.494300E+01
1008981,+2.495000E+01
1008993,+2.494200E+01
1009005,+2.494700E+01
1009017,+2.494300E+01
1009029,+2.494400E+01
1009041,+2.494800E+01
1009053,+2.494300E+01
1009065,+2.494900E+01
1009077,+2.494500E+01
1009089,+2.494300E+01
1009101,+2.494900E+01
1009113,+2.494200E+01
1009125,+2.494800E+01
1009137,+2.494700E+01
1009149,+2.494800E+01
1009161,+2.495100E+01
1009173,+2.494300E+01
1009185,+2.494700E+01
1009197,+2.494500E+01
1009209,+2.494300E+01
1009221,+2.495100E+01
1009233,+2.494200E+01
1009245,+2.494600E+01
1009257,+2.494400E+01
1009269,+2.494300E+01
1009281,+2.494900E+01
1009293,+2.494500E+01
1009305,+2.494800E+01
1009317,+2.494500E+01
1009329,+2.494500E+01
1009341,+2.494800E+01
1009353,+2.494400E+01
1009365,+2.495200E+01
1009377,+2.494400E+01
1009389,+2.494600E+01
1009401,+2.495100E+01
1009413,+2.494400E+01
1009425,+2.495300E+01
1009437,+2.494400E+01
1009449,+2.494800E+01
1009461,+2.495100E+01
1009473,+2.494500E+01
1009485,+2.495100E+01
1009497,+2.494600E+01
1009509,+2.494800E+01
1009521,+2.495200E+01
1009533,+2.494500E+01
1009545,+2.494900E+01
1009557,+2.494600E+01
1009569,+2.494800E+01
1009581,+2.495000E+01
1009593,+2.494500E+01
1009605,+2.495300E+01
1009617,+2.494500E+01
1009629,+2.494800E+01
1009641,+2.495300E+01
1009653,+2.494100E+01
1009665,+2.495200E+01
1009677,+2.494700E+01
1009689,+2.495000E+01
1009701,+2.495100E+01
1009713,+2.494300E+01
1009725,+2.495000E+01
1009737,+2.494800E+01
1009749,+2.494700E+01
1009761,+2.495000E+01
1009773,+2.494500E+01
1009785,+2.495200E+01
1009797,+2.494700E+01
1009809,+2.494700E+01
1009821,+2.495000E+01
1009833,+2.494700E+01
1009845,+2.495100E+01
1009857,+2.494600E+01
1009869,+2.494900E+01
1009881,+2.495200E+01
1009893,+2.494800E+01
1009905,+2.495200E+01
1009917,+2.494600E+01
1009929,+2.494700E+01
1009941,+2.495100E+01
1009953,+2.494600E+01
1009965,+2.495200E+01
1009977,+2.494700E+01
1009989,+2.495000E+01
1010001,+2.495600E+01
1010013,+2.494800E+01
1010025,+2.495300E+01
1010037,+2.494700E+01
1010049,+2.495000E+01
1010061,+2.495000E+01
1010073,+2.494600E+01
1010085,+2.495600E+01
1010097,+2.494700E+01
1010109,+2.495100E+01
1010121,+2.495600E+01
1010133,+2.494400E+01
1010145,+2.495300E+01
1010157,+2.495000E+01
1010169,+2.495300E+01
1010181,+2.495400E+01
1010193,+2.494500E+01
1010205,+2.495300E+01
1010217,+2.494800E+01
1010229,+2.494900E+01
1010241,+2.495100E+01
1010253,+2.494500E+01
1010265,+2.495500E+01
1010277,+2.494800E+01
1010289,+2.495000E+01
1010301,+2.495300E+01
1010313,+2.494800E+01
1010325,+2.495300E+01
1010337,+2.494600E+01
1010349,+2.494900E+01
1010361,+2.495300E+01
1010373,+2.494800E+01
1010385,+2.495200E+01
1010397,+2.494900E+01
1010409,+2.494900E+01
1010421,+2.495300E+01
1010433,+2.494300E+01
1010445,+2.495100E+01
1010457,+2.494800E+01
1010469,+2.495100E+01
1010481,+2.495500E+01
1010493,+2.494500E+01
1010505,+2.495200E+01
1010517,+2.494700E+01
1010529,+2.494800E+01
1010541,+2.494800E+01
1010553,+2.494700E+01
1010565,+2.495300E+01
1010577,+2.494500E+01
1010589,+2.494900E+01
1010601,+2.495100E+01
1010613,+2.494400E+01
1010625,+2.495100E+01
1010637,+2.494800E+01
1010649,+2.495000E+01
1010661,+2.495200E+01
1010673,+2.494800E+01
1010685,+2.495100E+01
1010697,+2.494500E+01
1010709,+2.495100E+01
1010721,+2.495100E+01
1010733,+2.494700E+01
1010745,+2.495200E+01
1010757,+2.494600E+01
1010769,+2.495000E+01
1010781,+2.495100E+01
1010793,+2.494400E+01
1010805,+2.494700E+01
1010817,+2.494600E+01
1010829,+2.494800E+01
1010841,+2.494900E+01
1010853,+2.494600E+01
1010865,+2.495100E+01
1010877,+2.494600E+01
1010889,+2.494900E+01
1010901,+2.495100E+01
1010913,+2.494600E+01
1010925,+2.495000E+01
1010937,+2.494700E+01
1010949,+2.494800E+01
1010961,+2.495200E+01
1010973,+2.494700E+01
1010985,+2.495200E+01
1010997,+2.494800E+01
1011009,+2.494900E+01
1011021,+2.495100E+01
1011033,+2.494700E+01
1011045,+2.495300E+01
1011057,+2.494900E+01
1011069,+2.495100E+01
1011081,+2.495300E+01
1011093,+2.494600E+01
1011105,+2.495400E+01
1011117,+2.494900E+01
1011129,+2.495200E+01
1011141,+2.495100E+01
1011153,+2.494600E+01
1011165,+2.495300E+01
1011177,+2.494600E+01
1011189,+2.494800E+01
1011201,+2.495200E+01
1011213,+2.494900E+01
1011225,+2.495200E+01
1011237,+2.494800E+01
1011249,+2.495000E+01
1011261,+2.495200E+01
1011273,+2.495000E+01
1011285,+2.495300E+01
1011297,+2.494600E+01
1011309,+2.495000E+01
1011321,+2.495300E+01
1011333,+2.494900E+01
1011345,+2.495200E+01
1011357,+2.494700E+01
1011369,+2.495100E+01
1011381,+2.495300E+01
1011393,+2.494700E+01
1011405,+2.495100E+01
1011417,+2.494600E+01
1011429,+2.494900E+01
1011441,+2.495200E+01
1011453,+2.494800E+01
1011465,+2.495400E+01
1011477,+2.494900E+01
1011489,+2.494900E+01
1011501,+2.495200E+01
1011513,+2.494600E+01
1011525,+2.495400E+01
1011537,+2.494700E+01
1011549,+2.494900E+01
1011561,+2.495300E+01
1011573,+2.494400E+01
1011585,+2.495200E+01
1011597,+2.494600E+01
1011609,+2.494800E+01
1011621,+2.494800E+01
1011633,+2.494800E+01
1011645,+2.495100E+01
1011657,+2.494500E+01
1011669,+2.494900E+01
1011681,+2.495000E+01
1011693,+2.495000E+01
1011705,+2.495400E+01
1011717,+2.494900E+01
1011729,+2.494800E+01
1011741,+2.495300E+01
1011753,+2.494600E+01
1011765,+2.495100E+01
1011777,+2.494700E+01
1011789,+2.495000E+01
1011801,+2.495100E+01
1011813,+2.494500E+01
1011825,+2.495400E+01
1011837,+2.494500E+01
1011849,+2.494900E+01
1011861,+2.495200E+01
1011873,+2.494600E+01
1011885,+2.495200E+01
1011897,+2.494700E+01
1011909,+2.494900E+01
1011921,+2.495000E+01
1011933,+2.494500E+01
1011945,+2.495100E+01
1011957,+2.494700E+01
1011969,+2.494800E+01
1011981,+2.494800E+01
1011993,+2.494800E+01
1012005,+2.495100E+01
1012017,+2.494600E+01
1012029,+2.494900E+01
1012041,+2.495100E+01
1012053,+2.494700E+01
1012065,+2.495100E+01
1012077,+2.494800E+01
1012089,+2.494800E+01
1012101,+2.495100E+01
1012113,+2.494800E+01
1012125,+2.495300E+01
1012137,+2.494700E+01
1012149,+2.495000E+01
1012161,+2.495100E+01
1012173,+2.494600E+01
1012185,+2.495300E+01
1012197,+2.494600E+01
1012209,+2.494800E+01
1012221,+2.495200E+01
1012233,+2.494800E+01
1012245,+2.495100E+01
1012257,+2.494700E+01
1012269,+2.495000E+01
1012281,+2.495200E+01
1012293,+2.494600E+01
1012305,+2.495500E+01
1012317,+2.495000E+01
1012329,+2.495300E+01
1012341,+2.495100E+01
1012353,+2.494400E+01
1012365,+2.494900E+01
1012377,+2.494300E+01
1012389,+2.495300E+01
1012401,+2.495400E+01
1012413,+2.494700E+01
1012425,+2.495300E+01
1012437,+2.494900E+01
1012449,+2.494900E+01
1012461,+2.495000E+01
1012473,+2.494500E+01
1012485,+2.495400E+01
1012497,+2.494700E+01
1012509,+2.494900E+01
1012521,+2.495400E+01
1012533,+2.494900E+01
1012545,+2.495400E+01
1012557,+2.494700E+01
1012569,+2.494600E+01
1012581,+2.495200E+01
1012593,+2.494500E+01
1012605,+2.495200E+01
1012617,+2.494600E+01
1012629,+2.494800E+01
1012641,+2.495200E+01
1012653,+2.494400E+01
1012665,+2.494900E+01
1012677,+2.494600E+01
1012689,+2.494600E+01
1012701,+2.494900E+01
1012713,+2.494600E+01
1012725,+2.495400E+01
1012737,+2.494500E+01
1012749,+2.494900E+01
1012761,+2.494900E+01
1012773,+2.494600E+01
1012785,+2.495000E+01
1012797,+2.494500E+01
1012809,+2.495000E+01
1012821,+2.495200E+01
1012833,+2.494500E+01
1012845,+2.495200E+01
1012857,+2.494800E+01
1012869,+2.494900E+01
1012881,+2.495200E+01
1012893,+2.494700E+01
1012905,+2.495300E+01
1012917,+2.494400E+01
1012929,+2.494800E+01
1012941,+2.495200E+01
1012953,+2.494900E+01
1012965,+2.495300E+01
1012977,+2.494400E+01
1012989,+2.495000E+01
1013001,+2.495200E+01
1013013,+2.494800E+01
1013025,+2.495300E+01
1013037,+2.494600E+01
1013049,+2.494900E+01
1013061,+2.495100E+01
1013073,+2.494800E+01
1013085,+2.495100E+01
1013097,+2.494600E+01
1013109,+2.495000E+01
1013121,+2.495200E+01
1013133,+2.494800E+01
1013145,+2.495000E+01
1013157,+2.494500E+01
1013169,+2.495000E+01
1013181,+2.494800E+01
1013193,+2.494900E+01
1013205,+2.495300E+01
1013217,+2.494700E+01
1013229,+2.495000E+01
1013241,+2.495100E+01
1013253,+2.494900E+01
1013265,+2.495200E+01
1013277,+2.494700E+01
1013289,+2.494600E+01
1013301,+2.495200E+01
1013313,+2.494900E+01
1013325,+2.495300E+01
1013337,+2.494500E+01
1013349,+2.495200E+01
1013361,+2.495300E+01
1013373,+2.494800E+01
1013385,+2.495200E+01
1013397,+2.494800E+01
1013409,+2.495100E+01
1013421,+2.495000E+01
1013433,+2.494700E+01
1013445,+2.495800E+01
1013457,+2.494800E+01
1013469,+2.495000E+01
1013481,+2.495300E+01
1013493,+2.494900E+01
1013505,+2.495600E+01
1013517,+2.494800E+01
1013529,+2.495300E+01
1013541,+2.495400E+01
1013553,+2.494900E+01
1013565,+2.495200E+01
1013577,+2.494800E+01
1013589,+2.495100E+01
1013601,+2.495100E+01
1013613,+2.495100E+01
1013625,+2.495700E+01
1013637,+2.494700E+01
1013649,+2.495200E+01
1013661,+2.495200E+01
1013673,+2.495000E+01
1013685,+2.495800E+01
1013697,+2.494800E+01
1013709,+2.495100E+01
1013721,+2.495000E+01
1013733,+2.495100E+01
1013745,+2.495400E+01
1013757,+2.495000E+01
1013769,+2.495100E+01
1013781,+2.495200E+01
1013793,+2.494900E+01
1013805,+2.495500E+01
1013817,+2.494900E+01
1013829,+2.495400E+01
1013841,+2.495400E+01
1013853,+2.495100E+01
1013865,+2.495400E+01
1013877,+2.494800E+01
1013889,+2.495500E+01
1013901,+2.495200E+01
1013913,+2.494900E+01
1013925,+2.495600E+01
1013937,+2.494800E+01
1013949,+2.495100E+01
1013961,+2.495300E+01
1013973,+2.494900E+01
1013985,+2.495100E+01
1013997,+2.494700E+01
1014009,+2.495200E+01
1014021,+2.495200E+01
1014033,+2.495100E+01
1014045,+2.495300E+01
1014057,+2.494900E+01
1014069,+2.495400E+01
1014081,+2.495200E+01
1014093,+2.495100E+01
1014105,+2.495800E+01
1014117,+2.494800E+01
1014129,+2.495300E+01
1014141,+2.495400E+01
1014153,+2.495000E+01
1014165,+2.495600E+01
1014177,+2.494900E+01
1014189,+2.495500E+01
1014201,+2.495100E+01
1014213,+2.494900E+01
1014225,+2.495400E+01
1014237,+2.495100E+01
1014249,+2.495500E+01
1014261,+2.495300E+01
1014273,+2.495000E+01
1014285,+2.495600E+01
1014297,+2.494800E+01
1014309,+2.495000E+01
1014321,+2.495300E+01
1014333,+2.495300E+01
1014345,+2.495700E+01
1014357,+2.495000E+01
1014369,+2.495400E+01
1014381,+2.495100E+01
1014393,+2.495200E+01
1014405,+2.495700E+01
1014417,+2.495200E+01
1014429,+2.495200E+01
1014441,+2.495300E+01
1014453,+2.495000E+01
1014465,+2.495600E+01
1014477,+2.494800E+01
1014489,+2.495500E+01
1014501,+2.495100E+01
1014513,+2.495200E+01
1014525,+2.495600E+01
1014537,+2.495000E+01
1014549,+2.495400E+01
1014561,+2.495200E+01
1014573,+2.495200E+01
1014585,+2.495700E+01
1014597,+2.494800E+01
1014609,+2.495200E+01
1014621,+2.495400E+01
1014633,+2.495300E+01
1014645,+2.495600E+01
1014657,+2.494800E+01
1014669,+2.495600E+01
1014681,+2.495300E+01
1014693,+2.495200E+01
1014705,+2.495700E+01
1014717,+2.495200E+01
1014729,+2.495600E+01
1014741,+2.495100E+01
1014753,+2.495200E+01
1014765,+2.495700E+01
1014777,+2.494900E+01
1014789,+2.495500E+01
1014801,+2.495300E+01
1014813,+2.495200E+01
1014825,+2.495500E+01
1014837,+2.494900E+01
1014849,+2.495400E+01
1014861,+2.495200E+01
1014873,+2.495100E+01
1014885,+2.495700E+01
1014897,+2.494800E+01
1014909,+2.495700E+01
1014921,+2.495300E+01
1014933,+2.495000E+01
1014945,+2.495800E+01
1014957,+2.495100E+01
1014969,+2.495500E+01
1014981,+2.495100E+01
1014993,+2.495400E+01
1015005,+2.495700E+01
1015017,+2.494900E+01
1015029,+2.495600E+01
1015041,+2.495400E+01
1015053,+2.495300E+01
1015065,+2.495600E+01
1015077,+2.495300E+01
1015089,+2.495500E+01
1015101,+2.495300E+01
1015113,+2.495500E+01
1015125,+2.495600E+01
1015137,+2.495000E+01
1015149,+2.495300E+01
1015161,+2.495100E+01
1015173,+2.495300E+01
1015185,+2.495700E+01
1015197,+2.494900E+01
1015209,+2.495500E+01
1015221,+2.495000E+01
1015233,+2.495100E+01
1015245,+2.495600E+01
1015257,+2.494900E+01
1015269,+2.495400E+01
1015281,+2.495300E+01
1015293,+2.495100E+01
1015305,+2.495700E+01
1015317,+2.494900E+01
1015329,+2.495700E+01
1015341,+2.495200E+01
1015353,+2.495300E+01
1015365,+2.495700E+01
1015377,+2.494800E+01
1015389,+2.495500E+01
1015401,+2.495300E+01
1015413,+2.495200E+01
1015425,+2.495700E+01
1015437,+2.495100E+01
1015449,+2.495400E+01
1015461,+2.495300E+01
1015473,+2.495100E+01
1015485,+2.495700E+01
1015497,+2.495300E+01
1015509,+2.495600E+01
1015521,+2.495300E+01
1015533,+2.495800E+01
1015545,+2.495700E+01
1015557,+2.495200E+01
1015569,+2.495500E+01
1015581,+2.495400E+01
1015593,+2.495400E+01
1015605,+2.495800E+01
1015617,+2.495000E+01
1015629,+2.495700E+01
1015641,+2.495300E+01
1015653,+2.495300E+01
1015665,+2.495900E+01
1015677,+2.495200E+01
1015689,+2.495600E+01
1015701,+2.495400E+01
1015713,+2.495300E+01
1015725,+2.495800E+01
1015737,+2.495300E+01
1015749,+2.495600E+01
1015761,+2.495300E+01
1015773,+2.495200E+01
1015785,+2.495500E+01
1015797,+2.495100E+01
1015809,+2.495800E+01
1015821,+2.495300E+01
1015833,+2.495500E+01
1015845,+2.496100E+01
1015857,+2.495600E+01
1015869,+2.495900E+01
1015881,+2.495400E+01
1015893,+2.495500E+01
1015905,+2.495700E+01
1015917,+2.495300E+01
1015929,+2.495500E+01
1015941,+2.495400E+01
1015953,+2.495600E+01
1015965,+2.496100E+01
1015977,+2.495100E+01
1015989,+2.495600E+01
1016001,+2.495300E+01
1016013,+2.495600E+01
1016025,+2.496000E+01
1016037,+2.495400E+01
1016049,+2.495600E+01
1016061,+2.495500E+01
1016073,+2.495500E+01
1016085,+2.496000E+01
1016097,+2.495500E+01
1016109,+2.495900E+01
1016121,+2.495600E+01
1016133,+2.495100E+01
1016145,+2.496000E+01
1016157,+2.495400E+01
1016169,+2.495600E+01
1016181,+2.495300E+01
1016193,+2.495900E+01
1016205,+2.495900E+01
1016217,+2.495300E+01
1016229,+2.495800E+01
1016241,+2.495500E+01
1016253,+2.495400E+01
1016277,+2.495600E+01
1016289,+2.495300E+01
1016301,+2.495600E+01
1016313,+2.495300E+01
1016325,+2.496200E+01
1016337,+2.495200E+01
1016349,+2.495800E+01
1016361,+2.495400E+01
1016373,+2.495500E+01
1016385,+2.496300E+01
1016397,+2.495400E+01
1016409,+2.495900E+01
1016421,+2.495400E+01
1016433,+2.495500E+01
1016445,+2.495900E+01
1016457,+2.495300E+01
1016469,+2.496000E+01
1016481,+2.495500E+01
1016493,+2.495900E+01
1016505,+2.495900E+01
1016517,+2.495400E+01
1016529,+2.496000E+01
1016541,+2.495300E+01
1016553,+2.495700E+01
1016565,+2.496000E+01
1016577,+2.495300E+01
1016589,+2.496000E+01
1016601,+2.495800E+01
1016613,+2.495600E+01
1016625,+2.496200E+01
1016637,+2.495500E+01
1016649,+2.495900E+01
1016661,+2.495400E+01
1016673,+2.495900E+01
1016685,+2.496200E+01
1016697,+2.495300E+01
1016709,+2.495800E+01
1016721,+2.495300E+01
1016733,+2.495700E+01
1016745,+2.495900E+01
1016757,+2.495800E+01
1016769,+2.495800E+01
1016781,+2.495600E+01
1016793,+2.495700E+01
1016805,+2.496000E+01
1016817,+2.495800E+01
1016829,+2.496100E+01
1016841,+2.495900E+01
1016853,+2.495800E+01
1016865,+2.496200E+01
1016877,+2.495500E+01
1016889,+2.495800E+01
1016901,+2.495600E+01
1016913,+2.495900E+01
1016925,+2.496000E+01
1016937,+2.495600E+01
1016949,+2.496100E+01
1016961,+2.495600E+01
1016973,+2.495800E+01
1016985,+2.496400E+01
1016997,+2.495500E+01
1017009,+2.496200E+01
1017021,+2.495400E+01
1017033,+2.495700E+01
1017045,+2.496000E+01
1017057,+2.495500E+01
1017069,+2.496000E+01
1017081,+2.495500E+01
1017093,+2.495900E+01
1017105,+2.495900E+01
1017117,+2.495600E+01
1017129,+2.495900E+01
1017141,+2.495500E+01
1017153,+2.495900E+01
1017165,+2.496000E+01
1017177,+2.495200E+01
1017189,+2.496200E+01
1017201,+2.495600E+01
1017213,+2.495900E+01
1017225,+2.496200E+01
1017237,+2.495100E+01
1017249,+2.495900E+01
1017261,+2.495400E+01
1017273,+2.495900E+01
1017285,+2.496400E+01
1017297,+2.495500E+01
1017309,+2.496100E+01
1017321,+2.495600E+01
1017333,+2.495900E+01
1017345,+2.496200E+01
1017357,+2.495500E+01
1017369,+2.496500E+01
1017381,+2.495500E+01
1017393,+2.495800E+01
1017405,+2.496300E+01
1017417,+2.495500E+01
1017429,+2.496300E+01
1017441,+2.495700E+01
1017453,+2.495800E+01
1017465,+2.496200E+01
1017477,+2.495800E+01
1017489,+2.496300E+01
1017501,+2.495600E+01
1017513,+2.495800E+01
1017525,+2.496100E+01
1017537,+2.495500E+01
1017549,+2.496100E+01
1017561,+2.495800E+01
1017573,+2.496100E+01
1017585,+2.496400E+01
1017597,+2.495200E+01
1017609,+2.496300E+01
1017621,+2.495900E+01
1017633,+2.495900E+01
1017645,+2.495900E+01
1017657,+2.495400E+01
1017669,+2.496300E+01
1017681,+2.495600E+01
1017693,+2.496000E+01
1017705,+2.496200E+01
1017717,+2.495800E+01
1017729,+2.496500E+01
1017741,+2.495800E+01
1017753,+2.496000E+01
1017765,+2.496400E+01
1017777,+2.495700E+01
1017789,+2.496500E+01
1017801,+2.495900E+01
1017813,+2.496100E+01
1017825,+2.496200E+01
1017837,+2.495900E+01
1017849,+2.496300E+01
1017861,+2.495600E+01
1017873,+2.496000E+01
1017885,+2.496300E+01
1017897,+2.495900E+01
1017909,+2.496300E+01
1017921,+2.495900E+01
1017933,+2.496200E+01
1017969,+2.496500E+01
1017981,+2.496400E+01
1017993,+2.496200E+01
1018005,+2.496800E+01
1018017,+2.495800E+01
1018029,+2.496400E+01
1018041,+2.496000E+01
1018053,+2.496000E+01
1018065,+2.496000E+01
1018077,+2.495900E+01
1018089,+2.496400E+01
1018101,+2.495900E+01
1018113,+2.496200E+01
1018125,+2.496400E+01
1018137,+2.495900E+01
1018149,+2.496500E+01
1018161,+2.496100E+01
1018173,+2.496200E+01
1018185,+2.496300E+01
1018197,+2.496100E+01
1018209,+2.496600E+01
1018221,+2.495900E+01
1018233,+2.496500E+01
1018245,+2.496200E+01
1018257,+2.495900E+01
1018269,+2.496400E+01
1018281,+2.495900E+01
1018293,+2.496200E+01
1018305,+2.496500E+01
1018317,+2.496200E+01
1018329,+2.496500E+01
1018341,+2.495700E+01
1018353,+2.495900E+01
1018365,+2.496400E+01
1018377,+2.495900E+01
1018389,+2.496400E+01
1018401,+2.496100E+01
1018413,+2.496500E+01
1018425,+2.496400E+01
1018437,+2.495900E+01
1018449,+2.496700E+01
1018461,+2.495900E+01
1018473,+2.496500E+01
1018485,+2.496400E+01
1018497,+2.496200E+01
1018509,+2.496800E+01
1018521,+2.496100E+01
1018533,+2.496400E+01
1018545,+2.496500E+01
1018557,+2.496300E+01
1018569,+2.497000E+01
1018581,+2.496000E+01
1018593,+2.496500E+01
1018605,+2.496400E+01
1018617,+2.495900E+01
1018629,+2.496500E+01
1018641,+2.495700E+01
1018653,+2.496500E+01
1018665,+2.496600E+01
1018677,+2.496100E+01
1018689,+2.496800E+01
1018701,+2.495900E+01
1018713,+2.496600E+01
1018725,+2.496300E+01
1018737,+2.495900E+01
1018749,+2.496700E+01
1018761,+2.495900E+01
1018773,+2.496500E+01
1018785,+2.496700E+01
1018797,+2.496300E+01
1018809,+2.496400E+01
1018821,+2.496400E+01
1018833,+2.496300E+01
1018845,+2.496600E+01
1018857,+2.496200E+01
1018869,+2.496900E+01
1018881,+2.496200E+01
1018893,+2.496400E+01
1018905,+2.496400E+01
1018917,+2.496100E+01
1018929,+2.496800E+01
1018941,+2.496200E+01
1018953,+2.497600E+01
1018965,+2.496400E+01
1018977,+2.495800E+01
1018989,+2.496800E+01
1019001,+2.496300E+01
1019013,+2.496800E+01
1019025,+2.496400E+01
1019037,+2.496400E+01
1019049,+2.496900E+01
1019061,+2.496100E+01
1019073,+2.496900E+01
1019085,+2.496600E+01
1019097,+2.496400E+01
1019109,+2.497200E+01
1019121,+2.496300E+01
1019133,+2.496700E+01
1019145,+2.497000E+01
1019157,+2.496400E+01
1019169,+2.496900E+01
1019181,+2.496200E+01
1019193,+2.496700E+01
1019205,+2.496600E+01
1019217,+2.496600E+01
1019229,+2.496900E+01
1019241,+2.496200E+01
1019253,+2.496500E+01
1019265,+2.496600E+01
1019277,+2.496500E+01
1019289,+2.496600E+01
1019301,+2.496200E+01
1019313,+2.496500E+01
1019325,+2.496200E+01
1019337,+2.495800E+01
1019349,+2.496600E+01
1019361,+2.495900E+01
1019373,+2.496000E+01
1019385,+2.496200E+01
1019397,+2.495500E+01
1019409,+2.496100E+01
1019421,+2.495700E+01
1019433,+2.496300E+01
1019445,+2.496200E+01
1019457,+2.496000E+01
1019469,+2.496400E+01
1019481,+2.495800E+01
1019493,+2.496500E+01
1019505,+2.496400E+01
1019517,+2.496200E+01
1019529,+2.496800E+01
1019541,+2.496200E+01
1019553,+2.496500E+01
1019565,+2.496700E+01
1019577,+2.496300E+01
1019589,+2.496800E+01
1019601,+2.496200E+01
1019613,+2.496500E+01
1019625,+2.496200E+01
1019637,+2.496000E+01
1019649,+2.496000E+01
1019661,+2.495500E+01
1019673,+2.495900E+01
1019685,+2.495800E+01
1019697,+2.495600E+01
1019709,+2.495900E+01
1019721,+2.495100E+01
1019733,+2.495700E+01
1019745,+2.495700E+01
1019757,+2.495400E+01
1019769,+2.496100E+01
1019781,+2.495200E+01
1019793,+2.495600E+01
1019805,+2.495400E+01
1019817,+2.495300E+01
1019829,+2.495900E+01
1019841,+2.495600E+01
1019853,+2.495900E+01
1019865,+2.495900E+01
1019877,+2.495600E+01
1019889,+2.496300E+01
1019901,+2.495300E+01
1019913,+2.495700E+01
1019925,+2.496000E+01
1019937,+2.495000E+01
1019949,+2.495900E+01
1019961,+2.495200E+01
1019973,+2.495700E+01
1019985,+2.495600E+01
1019997,+2.495500E+01
1020009,+2.496200E+01
1020021,+2.495400E+01
1020033,+2.496000E+01
1020045,+2.495500E+01
1020057,+2.495400E+01
1020069,+2.496300E+01
1020081,+2.495000E+01
1020093,+2.495500E+01
1020105,+2.495200E+01
1020117,+2.495200E+01
1020129,+2.495400E+01
1020141,+2.494800E+01
1020153,+2.495300E+01
1020165,+2.495200E+01
1020177,+2.495200E+01
1020189,+2.495500E+01
1020201,+2.494800E+01
1020213,+2.496000E+01
1020225,+2.495200E+01
1020237,+2.494900E+01
1020249,+2.495500E+01
1020261,+2.494900E+01
1020273,+2.495400E+01
1020285,+2.495100E+01
1020297,+2.495000E+01
1020309,+2.495500E+01
1020321,+2.494700E+01
1020333,+2.495300E+01
1020345,+2.494900E+01
1020357,+2.495000E+01
1020369,+2.495600E+01
1020381,+2.495000E+01
1020393,+2.495200E+01
1020405,+2.495000E+01
1020417,+2.494900E+01
1020429,+2.495300E+01
1020441,+2.494900E+01
1020453,+2.495400E+01
1020465,+2.494900E+01
1020477,+2.495500E+01
1020489,+2.495700E+01
1020501,+2.495200E+01
1020513,+2.495300E+01
1020525,+2.495200E+01
1020537,+2.495400E+01
1020549,+2.495500E+01
1020561,+2.495000E+01
1020573,+2.495400E+01
1020585,+2.495300E+01
1020597,+2.495000E+01
1020609,+2.495600E+01
1020621,+2.495100E+01
1020633,+2.495500E+01
1020645,+2.495400E+01
1020657,+2.495200E+01
1020669,+2.495400E+01
1020681,+2.495200E+01
1020693,+2.495700E+01
1020705,+2.495100E+01
1020717,+2.495400E+01
1020729,+2.495700E+01
1020741,+2.495000E+01
1020753,+2.495600E+01
1020765,+2.495500E+01
1020777,+2.495300E+01
1020789,+2.496000E+01
1020801,+2.495300E+01
1020813,+2.495900E+01
1020825,+2.495400E+01
1020837,+2.495700E+01
1020849,+2.495900E+01
1020861,+2.495300E+01
1020873,+2.496000E+01
1020885,+2.495600E+01
1020897,+2.495800E+01
1020909,+2.496400E+01
1020921,+2.495200E+01
1020933,+2.495900E+01
1020945,+2.495800E+01
1020957,+2.495500E+01
1020969,+2.496000E+01
1020981,+2.495500E+01
1020993,+2.495900E+01
1021005,+2.495700E+01
1021017,+2.495600E+01
1021029,+2.496300E+01
1021041,+2.495500E+01
1021053,+2.496000E+01
1021065,+2.495700E+01
1021077,+2.495800E+01
1021089,+2.496100E+01
1021101,+2.495700E+01
1021113,+2.496100E+01
1021125,+2.495800E+01
1021137,+2.495800E+01
1021149,+2.496300E+01
1021161,+2.495400E+01
1021173,+2.495900E+01
1021185,+2.495800E+01
1021197,+2.495600E+01
1021209,+2.496200E+01
1021221,+2.495900E+01
1021233,+2.496200E+01
1021245,+2.495800E+01
1021257,+2.496100E+01
1021269,+2.496400E+01
1021281,+2.495900E+01
1021293,+2.496300E+01
1021305,+2.495700E+01
1021317,+2.496000E+01
1021329,+2.496500E+01
1021341,+2.495900E+01
1021353,+2.496400E+01
1021365,+2.495900E+01
1021377,+2.495900E+01
1021389,+2.496300E+01
1021401,+2.495800E+01
1021413,+2.496400E+01
1021425,+2.495900E+01
1021437,+2.495900E+01
1021449,+2.496300E+01
1021461,+2.495900E+01
1021473,+2.496400E+01
1021485,+2.496000E+01
1021497,+2.496000E+01
1021509,+2.496600E+01
1021521,+2.495900E+01
1021533,+2.496400E+01
1021545,+2.496100E+01
1021557,+2.496100E+01
1021569,+2.496700E+01
1021581,+2.496300E+01
1021593,+2.496600E+01
1021605,+2.496400E+01
1021617,+2.496400E+01
1021629,+2.497000E+01
1021641,+2.496400E+01
1021653,+2.497100E+01
1021665,+2.496500E+01
1021677,+2.496900E+01
1021689,+2.497000E+01
1021701,+2.496400E+01
1021713,+2.497100E+01
1021725,+2.496900E+01
1021737,+2.496900E+01
1021749,+2.497300E+01
1021761,+2.496900E+01
1021773,+2.497100E+01
1021785,+2.496800E+01
1021797,+2.496600E+01
1021809,+2.497100E+01
1021821,+2.496600E+01
1021833,+2.497100E+01
1021845,+2.496600E+01
1021857,+2.497100E+01
1021869,+2.497200E+01
1021881,+2.496100E+01
1021893,+2.496900E+01
1021905,+2.496700E+01
1021917,+2.496800E+01
1021929,+2.497300E+01
1021941,+2.496400E+01
1021953,+2.497200E+01
1021965,+2.496600E+01
1021977,+2.496400E+01
1021989,+2.496800E+01
1022001,+2.496000E+01
1022013,+2.497000E+01
1022025,+2.496200E+01
1022037,+2.496300E+01
1022049,+2.496500E+01
1022061,+2.495700E+01
1022073,+2.496300E+01
1022085,+2.496100E+01
1022097,+2.495900E+01
1022109,+2.496600E+01
1022121,+2.495800E+01
1022133,+2.496200E+01
1022145,+2.495800E+01
1022157,+2.495700E+01
1022169,+2.496400E+01
1022181,+2.495800E+01
1022193,+2.496400E+01
1022205,+2.495900E+01
1022217,+2.496000E+01
1022229,+2.496000E+01
1022241,+2.495800E+01
1022253,+2.496300E+01
1022265,+2.495800E+01
1022277,+2.495900E+01
1022289,+2.496100E+01
1022301,+2.495900E+01
1022313,+2.496400E+01
1022325,+2.495800E+01
1022337,+2.495800E+01
1022349,+2.496400E+01
1022361,+2.495800E+01
1022373,+2.496300E+01
1022385,+2.495800E+01
1022397,+2.496100E+01
1022409,+2.496300E+01
1022421,+2.495500E+01
1022433,+2.496400E+01
1022445,+2.495900E+01
1022457,+2.495900E+01
1022469,+2.496200E+01
1022481,+2.495900E+01
1022493,+2.496200E+01
1022505,+2.495700E+01
1022517,+2.496000E+01
1022529,+2.496500E+01
1022541,+2.495800E+01
1022553,+2.496400E+01
1022565,+2.496000E+01
1022577,+2.496000E+01
1022589,+2.496300E+01
1022601,+2.495500E+01
1022613,+2.496400E+01
1022625,+2.495600E+01
1022637,+2.496100E+01
1022649,+2.496400E+01
1022661,+2.495700E+01
1022673,+2.496200E+01
1022685,+2.495800E+01
1022697,+2.495900E+01
1022709,+2.496400E+01
1022721,+2.495700E+01
1022733,+2.496400E+01
1022745,+2.495900E+01
1022757,+2.496200E+01
1022769,+2.496200E+01
1022781,+2.495600E+01
1022793,+2.496000E+01
1022805,+2.495700E+01
1022817,+2.495900E+01
1022829,+2.496400E+01
1022841,+2.495700E+01
1022853,+2.496200E+01
1022865,+2.495800E+01
1022877,+2.496100E+01
1022889,+2.496400E+01
1022901,+2.495800E+01
1022913,+2.496200E+01
1022925,+2.495900E+01
1022937,+2.496200E+01
1022949,+2.496400E+01
1022961,+2.495900E+01
1022973,+2.496400E+01
1022985,+2.495800E+01
1022997,+2.496100E+01
1023009,+2.496500E+01
1023021,+2.495900E+01
1023033,+2.496600E+01
1023045,+2.496000E+01
1023057,+2.496000E+01
1023069,+2.496300E+01
1023081,+2.495600E+01
1023093,+2.496500E+01
1023105,+2.495700E+01
1023117,+2.496100E+01
1023129,+2.496400E+01
1023141,+2.496000E+01
1023153,+2.496500E+01
1023165,+2.495900E+01
1023177,+2.496100E+01
1023189,+2.496500E+01
1023201,+2.496000E+01
1023213,+2.496400E+01
1023225,+2.495900E+01
1023237,+2.496100E+01
1023249,+2.496200E+01
1023261,+2.496300E+01
1023273,+2.496500E+01
1023285,+2.495900E+01
1023297,+2.496300E+01
1023309,+2.496500E+01
1023321,+2.496000E+01
1023333,+2.496500E+01
1023345,+2.495900E+01
1023357,+2.496200E+01
1023369,+2.496300E+01
1023381,+2.496100E+01
1023393,+2.496500E+01
1023405,+2.496100E+01
1023417,+2.496400E+01
1023429,+2.496600E+01
1023441,+2.496000E+01
1023453,+2.496500E+01
1023465,+2.496100E+01
1023477,+2.496300E+01
1023489,+2.496400E+01
1023501,+2.496200E+01
1023513,+2.496400E+01
1023525,+2.496100E+01
1023537,+2.496600E+01
1023549,+2.496500E+01
1023561,+2.495900E+01
1023573,+2.496400E+01
1023585,+2.496000E+01
1023597,+2.496400E+01
1023609,+2.496500E+01
1023621,+2.496100E+01
1023633,+2.496600E+01
1023645,+2.496100E+01
1023657,+2.496500E+01
1023669,+2.496400E+01
1023681,+2.496400E+01
1023693,+2.496700E+01
1023705,+2.496300E+01
1023717,+2.496400E+01
1023729,+2.496400E+01
1023741,+2.496300E+01
1023753,+2.496900E+01
1023765,+2.496100E+01
1023777,+2.496700E+01
1023789,+2.496600E+01
1023801,+2.496000E+01
1023813,+2.496700E+01
1023825,+2.496300E+01
1023837,+2.496400E+01
1023849,+2.496600E+01
1023861,+2.496300E+01
1023873,+2.496700E+01
1023885,+2.496200E+01
1023897,+2.496400E+01
1023909,+2.496700E+01
1023921,+2.496400E+01
1023933,+2.496700E+01
1023945,+2.496200E+01
1023957,+2.496600E+01
1023969,+2.496700E+01
1023981,+2.496500E+01
1023993,+2.496600E+01
1024005,+2.496400E+01
1024017,+2.496400E+01
1024029,+2.496600E+01
1024041,+2.496100E+01
1024053,+2.496800E+01
1024065,+2.496400E+01
1024077,+2.496900E+01
1024089,+2.496800E+01
1024101,+2.496300E+01
1024113,+2.497000E+01
1024125,+2.496200E+01
1024137,+2.496400E+01
1024149,+2.496900E+01
1024161,+2.496500E+01
1024173,+2.496800E+01
1024185,+2.496200E+01
1024197,+2.496600E+01
1024209,+2.496700E+01
1024221,+2.496400E+01
1024233,+2.497000E+01
1024245,+2.496400E+01
1024257,+2.496700E+01
1024269,+2.496800E+01
1024281,+2.496600E+01
1024305,+2.496600E+01
1024317,+2.496000E+01
1024329,+2.496600E+01
1024341,+2.496600E+01
1024353,+2.497400E+01
1024365,+2.496300E+01
1024377,+2.496900E+01
1024389,+2.496700E+01
1024401,+2.496200E+01
1024413,+2.497000E+01
1024425,+2.496200E+01
1024437,+2.496800E+01
1024449,+2.496900E+01
1024461,+2.496000E+01
1024473,+2.497000E+01
1024485,+2.496200E+01
1024497,+2.496500E+01
1024509,+2.496600E+01
1024521,+2.496600E+01
1024533,+2.497000E+01
1024545,+2.496300E+01
1024557,+2.496500E+01
1024569,+2.496800E+01
1024581,+2.496500E+01
1024593,+2.496900E+01
1024605,+2.496300E+01
1024617,+2.496700E+01
1024629,+2.496700E+01
1024641,+2.496300E+01
1024653,+2.497100E+01
1024665,+2.496100E+01
1024677,+2.497000E+01
1024689,+2.496600E+01
1024701,+2.496400E+01
1024713,+2.497000E+01
1024725,+2.496400E+01
1024737,+2.496800E+01
1024749,+2.496700E+01
1024761,+2.496400E+01
1024773,+2.497000E+01
1024785,+2.496300E+01
1024797,+2.496600E+01
1024809,+2.496900E+01
1024821,+2.496500E+01
1024833,+2.497100E+01
1024845,+2.496500E+01
1024857,+2.496800E+01
1024869,+2.496800E+01
1024881,+2.496800E+01
1024893,+2.497000E+01
1024905,+2.496800E+01
1024917,+2.496700E+01
1024929,+2.497600E+01
1024941,+2.496800E+01
1024953,+2.496900E+01
1024965,+2.496400E+01
1024977,+2.496900E+01
1024989,+2.496900E+01
1025001,+2.496800E+01
1025013,+2.497200E+01
1025025,+2.496700E+01
1025037,+2.497000E+01
1025049,+2.496700E+01
1025061,+2.496700E+01
1025073,+2.497300E+01
1025085,+2.496500E+01
1025097,+2.496900E+01
1025109,+2.497000E+01
1025121,+2.496900E+01
1025133,+2.497200E+01
1025145,+2.496700E+01
1025157,+2.497000E+01
1025169,+2.496800E+01
1025181,+2.496800E+01
1025193,+2.497200E+01
1025205,+2.496400E+01
1025217,+2.496900E+01
1025229,+2.496700E+01
1025241,+2.496800E+01
1025253,+2.497300E+01
1025265,+2.496600E+01
1025277,+2.497400E+01
1025289,+2.496800E+01
1025301,+2.496700E+01
1025313,+2.497200E+01
1025325,+2.496400E+01
1025337,+2.497100E+01
1025349,+2.496900E+01
1025361,+2.497000E+01
1025373,+2.496800E+01
1025385,+2.496500E+01
1025397,+2.497200E+01
1025409,+2.496900E+01
1025421,+2.496800E+01
1025433,+2.497300E+01
1025445,+2.496500E+01
1025457,+2.497200E+01
1025469,+2.497000E+01
1025481,+2.496900E+01
1025493,+2.497100E+01
1025505,+2.496800E+01
1025517,+2.497400E+01
1025529,+2.496900E+01
1025541,+2.496800E+01
1025553,+2.497400E+01
1025565,+2.496800E+01
1025577,+2.497000E+01
1025589,+2.496900E+01
1025601,+2.496700E+01
1025613,+2.497700E+01
1025625,+2.496700E+01
1025637,+2.497300E+01
1025649,+2.496800E+01
1025661,+2.497000E+01
1025673,+2.497500E+01
1025685,+2.497000E+01
1025697,+2.497300E+01
1025709,+2.497000E+01
1025721,+2.497100E+01
1025733,+2.497400E+01
1025745,+2.496600E+01
1025757,+2.497300E+01
1025769,+2.497000E+01
1025781,+2.497000E+01
1025793,+2.497300E+01
1025805,+2.496800E+01
1025817,+2.497400E+01
1025829,+2.497000E+01
1025841,+2.497200E+01
1025853,+2.497700E+01
1025865,+2.496900E+01
1025877,+2.497500E+01
1025889,+2.496900E+01
1025901,+2.497200E+01
1025913,+2.497600E+01
1025925,+2.496900E+01
1025937,+2.497400E+01
1025949,+2.497200E+01
1025961,+2.497100E+01
1025973,+2.497300E+01
1025985,+2.496900E+01
1025997,+2.497500E+01
1026009,+2.496900E+01
1026021,+2.496900E+01
1026033,+2.497600E+01
1026045,+2.496600E+01
1026057,+2.497400E+01
1026069,+2.497000E+01
1026081,+2.497100E+01
1026093,+2.497800E+01
1026105,+2.496800E+01
1026117,+2.497500E+01
1026129,+2.497100E+01
1026141,+2.497000E+01
1026153,+2.497200E+01
1026165,+2.496900E+01
1026177,+2.497400E+01
1026189,+2.497200E+01
1026201,+2.497100E+01
1026213,+2.497700E+01
1026225,+2.497000E+01
1026237,+2.497600E+01
1026249,+2.497200E+01
1026261,+2.497100E+01
1026273,+2.497500E+01
1026285,+2.497200E+01
1026297,+2.497400E+01
1026309,+2.496900E+01
1026321,+2.497200E+01
1026333,+2.497600E+01
1026345,+2.497200E+01
1026357,+2.497500E+01
1026369,+2.497200E+01
1026381,+2.497000E+01
1026393,+2.497600E+01
1026405,+2.496900E+01
1026417,+2.497500E+01
1026429,+2.497100E+01
1026441,+2.497100E+01
1026453,+2.497600E+01
1026465,+2.496800E+01
1026477,+2.497500E+01
1026489,+2.497100E+01
1026501,+2.497300E+01
1026513,+2.497600E+01
1026525,+2.497000E+01
1026537,+2.497700E+01
1026549,+2.497300E+01
1026561,+2.497100E+01
1026573,+2.497300E+01
1026585,+2.496700E+01
1026597,+2.497600E+01
1026609,+2.497100E+01
1026621,+2.497000E+01
1026633,+2.497800E+01
1026645,+2.496900E+01
1026657,+2.497600E+01
1026669,+2.497200E+01
1026681,+2.497200E+01
1026693,+2.497800E+01
1026705,+2.496800E+01
1026717,+2.497400E+01
1026729,+2.496900E+01
1026741,+2.497300E+01
1026753,+2.497700E+01
1026765,+2.497100E+01
1026777,+2.497400E+01
1026789,+2.497000E+01
1026801,+2.497400E+01
1026813,+2.497600E+01
1026825,+2.496900E+01
1026837,+2.497500E+01
1026849,+2.497000E+01
1026861,+2.497300E+01
1026873,+2.497500E+01
1026885,+2.497000E+01
1026897,+2.497900E+01
1026909,+2.497200E+01
1026921,+2.496900E+01
1026933,+2.497900E+01
1026945,+2.496700E+01
1026957,+2.497400E+01
1026969,+2.497000E+01
1026981,+2.497300E+01
1026993,+2.497600E+01
1027005,+2.497300E+01
1027017,+2.497500E+01
1027029,+2.497200E+01
1027041,+2.497200E+01
1027053,+2.497500E+01
1027065,+2.497100E+01
1027077,+2.497700E+01
1027089,+2.496900E+01
1027101,+2.497200E+01
1027113,+2.497600E+01
1027125,+2.496900E+01
1027137,+2.497800E+01
1027149,+2.497400E+01
1027161,+2.497400E+01
1027173,+2.497600E+01
1027185,+2.497000E+01
1027197,+2.497800E+01
1027209,+2.496900E+01
1027221,+2.497500E+01
1027233,+2.497600E+01
1027245,+2.496900E+01
1027257,+2.497600E+01
1027269,+2.496900E+01
1027281,+2.497500E+01
1027293,+2.497500E+01
1027305,+2.497400E+01
1027317,+2.497800E+01
1027329,+2.497000E+01
1027341,+2.497500E+01
1027353,+2.497800E+01
1027365,+2.497100E+01
1027377,+2.497600E+01
1027389,+2.497100E+01
1027401,+2.497300E+01
1027413,+2.498000E+01
1027425,+2.497200E+01
1027437,+2.498000E+01
1027449,+2.497400E+01
1027461,+2.497700E+01
1027473,+2.497800E+01
1027485,+2.496800E+01
1027497,+2.497600E+01
1027509,+2.496900E+01
1027521,+2.497500E+01
1027533,+2.497700E+01
1027545,+2.497400E+01
1027557,+2.497900E+01
1027569,+2.497300E+01
1027581,+2.497500E+01
1027593,+2.497600E+01
1027605,+2.496900E+01
1027617,+2.497700E+01
1027629,+2.497300E+01
1027641,+2.497400E+01
1027653,+2.497900E+01
1027665,+2.497200E+01
1027677,+2.497800E+01
1027689,+2.497500E+01
1027701,+2.497600E+01
1027713,+2.497400E+01
1027725,+2.497200E+01
1027737,+2.498000E+01
1027749,+2.497400E+01
1027761,+2.497600E+01
1027773,+2.497700E+01
1027785,+2.497400E+01
1027797,+2.497900E+01
1027809,+2.497200E+01
1027821,+2.497300E+01
1027833,+2.497900E+01
1027845,+2.497000E+01
1027857,+2.497900E+01
1027869,+2.497400E+01
1027881,+2.497600E+01
1027893,+2.497700E+01
1027905,+2.497200E+01
1027917,+2.498000E+01
1027929,+2.497700E+01
1027941,+2.497700E+01
1027953,+2.497800E+01
1027965,+2.497400E+01
1027977,+2.498000E+01
1027989,+2.497400E+01
1028001,+2.497700E+01
1028013,+2.497900E+01
1028025,+2.497300E+01
1028037,+2.497900E+01
1028049,+2.497500E+01
1028061,+2.497900E+01
1028073,+2.497700E+01
1028085,+2.497400E+01
1028097,+2.498000E+01
1028109,+2.497500E+01
1028121,+2.497700E+01
1028133,+2.498000E+01
1028145,+2.497300E+01
1028157,+2.498000E+01
1028169,+2.497500E+01
1028181,+2.497600E+01
1028193,+2.498200E+01
1028205,+2.497800E+01
1028217,+2.498100E+01
1028229,+2.497300E+01
1028241,+2.498000E+01
1028253,+2.497900E+01
1028265,+2.497800E+01
1028277,+2.497900E+01
1028289,+2.497400E+01
1028301,+2.497700E+01
1028313,+2.497800E+01
1028325,+2.497800E+01
1028337,+2.497700E+01
1028349,+2.497500E+01
1028361,+2.497900E+01
1028373,+2.497600E+01
1028385,+2.497600E+01
1028397,+2.498100E+01
1028409,+2.497600E+01
1028421,+2.497900E+01
1028433,+2.498000E+01
1028445,+2.497600E+01
1028457,+2.498200E+01
1028469,+2.497500E+01
1028481,+2.498000E+01
1028493,+2.497900E+01
1028505,+2.497400E+01
1028517,+2.498100E+01
1028529,+2.497500E+01
1028541,+2.497900E+01
1028553,+2.497900E+01
1028565,+2.497600E+01
1028577,+2.498300E+01
1028589,+2.497500E+01
1028601,+2.497800E+01
1028613,+2.497900E+01
1028625,+2.497700E+01
1028637,+2.498100E+01
1028649,+2.497400E+01
1028661,+2.497900E+01
1028673,+2.497800E+01
1028685,+2.497700E+01
1028697,+2.498000E+01
1028709,+2.497700E+01
1028721,+2.498200E+01
1028733,+2.498000E+01
1028745,+2.497600E+01
1028757,+2.498200E+01
1028769,+2.497600E+01
1028781,+2.497900E+01
1028793,+2.498000E+01
1028805,+2.497700E+01
1028817,+2.498300E+01
1028829,+2.497500E+01
1028841,+2.497800E+01
1028853,+2.498000E+01
1028865,+2.497800E+01
1028877,+2.498000E+01
1028889,+2.497800E+01
1028901,+2.498000E+01
1028913,+2.498000E+01
1028925,+2.497700E+01
1028937,+2.498300E+01
1028949,+2.497800E+01
1028961,+2.497900E+01
1028973,+2.498300E+01
1028985,+2.497900E+01
1028997,+2.498200E+01
1029009,+2.497600E+01
1029021,+2.498100E+01
1029033,+2.498200E+01
1029045,+2.497800E+01
1029057,+2.498400E+01
1029069,+2.498000E+01
1029081,+2.498200E+01
1029093,+2.498100E+01
1029105,+2.497600E+01
1029117,+2.498400E+01
1029129,+2.497600E+01
1029141,+2.498000E+01
1029153,+2.498200E+01
1029165,+2.497800E+01
1029177,+2.498400E+01
1029189,+2.497600E+01
1029201,+2.498100E+01
1029213,+2.498000E+01
1029225,+2.497900E+01
1029237,+2.498300E+01
1029249,+2.497600E+01
1029261,+2.498200E+01
1029273,+2.498300E+01
1029285,+2.497800E+01
1029297,+2.498300E+01
1029309,+2.497600E+01
1029321,+2.498500E+01
1029333,+2.498000E+01
1029345,+2.497800E+01
1029357,+2.498200E+01
1029369,+2.497800E+01
1029381,+2.498200E+01
1029393,+2.498000E+01
1029405,+2.497900E+01
1029417,+2.498600E+01
1029429,+2.497700E+01
1029441,+2.498100E+01
1029453,+2.498200E+01
1029465,+2.497900E+01
1029477,+2.498200E+01
1029489,+2.497500E+01
1029501,+2.498200E+01
1029513,+2.498200E+01
1029525,+2.497800E+01
1029537,+2.498400E+01
1029549,+2.497700E+01
1029561,+2.498200E+01
1029573,+2.498200E+01
1029585,+2.497800E+01
1029597,+2.498100E+01
1029609,+2.498000E+01
1029621,+2.498100E+01
1029633,+2.498200E+01
1029645,+2.498000E+01
1029657,+2.498600E+01
1029669,+2.497800E+01
1029681,+2.498300E+01
1029693,+2.498300E+01
1029705,+2.497900E+01
1029717,+2.498500E+01
1029729,+2.498000E+01
1029741,+2.498000E+01
1029753,+2.498000E+01
1029765,+2.498100E+01
1029777,+2.498300E+01
1029789,+2.497600E+01
1029801,+2.498000E+01
1029813,+2.498300E+01
1029825,+2.498000E+01
1029837,+2.498400E+01
1029849,+2.497600E+01
1029861,+2.498200E+01
1029873,+2.497900E+01
1029885,+2.498000E+01
1029897,+2.498500E+01
1029909,+2.497900E+01
1029921,+2.498100E+01
1029933,+2.498200E+01
1029945,+2.498000E+01
1029957,+2.498500E+01
1029969,+2.497900E+01
1029981,+2.498300E+01
1029993,+2.498100E+01
1030005,+2.498000E+01
1030017,+2.498200E+01
1030029,+2.497800E+01
1030041,+2.498300E+01
1030053,+2.498100E+01
1030065,+2.498200E+01
1030077,+2.498600E+01
1030089,+2.497800E+01
1030101,+2.498400E+01
1030113,+2.498100E+01
1030125,+2.498000E+01
1030137,+2.498400E+01
1030149,+2.497700E+01
1030161,+2.498500E+01
1030173,+2.498200E+01
1030185,+2.498000E+01
1030197,+2.498800E+01
1030209,+2.498000E+01
1030221,+2.498400E+01
1030233,+2.498400E+01
1030245,+2.498000E+01
1030257,+2.498400E+01
1030269,+2.498100E+01
1030281,+2.498700E+01
1030293,+2.498000E+01
1030305,+2.498200E+01
1030317,+2.498800E+01
1030329,+2.498000E+01
1030341,+2.498500E+01
1030353,+2.498400E+01
1030365,+2.498000E+01
1030377,+2.498600E+01
1030389,+2.498000E+01
1030401,+2.498400E+01
1030413,+2.498000E+01
1030425,+2.498100E+01
1030437,+2.498800E+01
1030449,+2.497800E+01
1030461,+2.498600E+01
1030473,+2.498000E+01
1030485,+2.498300E+01
1030497,+2.498800E+01
1030509,+2.498000E+01
1030521,+2.498500E+01
1030533,+2.497900E+01
1030545,+2.498000E+01
1030557,+2.498400E+01
1030569,+2.498000E+01
1030581,+2.498700E+01
1030593,+2.498200E+01
1030605,+2.498100E+01
1030617,+2.498600E+01
1030629,+2.497800E+01
1030641,+2.498600E+01
1030653,+2.498100E+01
1030665,+2.498000E+01
1030677,+2.498600E+01
1030689,+2.497900E+01
1030701,+2.498600E+01
1030713,+2.498200E+01
1030725,+2.498000E+01
1030737,+2.498600E+01
1030749,+2.498000E+01
1030761,+2.498500E+01
1030773,+2.498000E+01
1030785,+2.498100E+01
1030797,+2.498700E+01
1030809,+2.498000E+01
1030821,+2.498400E+01
1030833,+2.498200E+01
1030845,+2.498100E+01
1030857,+2.498800E+01
1030869,+2.497900E+01
1030881,+2.498700E+01
1030893,+2.498200E+01
1030905,+2.498200E+01
1030917,+2.498800E+01
1030929,+2.498200E+01
1030941,+2.498500E+01
1030953,+2.497900E+01
1030965,+2.498400E+01
1030977,+2.498900E+01
1030989,+2.498100E+01
1031001,+2.498800E+01
1031013,+2.498200E+01
1031025,+2.498400E+01
1031037,+2.498900E+01
1031049,+2.498000E+01
1031061,+2.498400E+01
1031073,+2.498400E+01
1031085,+2.498300E+01
1031097,+2.498900E+01
1031109,+2.498000E+01
1031121,+2.498600E+01
1031133,+2.498100E+01
1031145,+2.498500E+01
1031157,+2.498900E+01
1031169,+2.498200E+01
1031181,+2.498500E+01
1031193,+2.498600E+01
1031205,+2.498500E+01
1031217,+2.498800E+01
1031229,+2.498000E+01
1031241,+2.498600E+01
1031253,+2.498300E+01
1031265,+2.498200E+01
1031277,+2.498700E+01
1031289,+2.498200E+01
1031301,+2.498800E+01
1031313,+2.498500E+01
1031325,+2.498300E+01
1031337,+2.498900E+01
1031349,+2.498100E+01
1031361,+2.498700E+01
1031373,+2.498400E+01
1031385,+2.498500E+01
1031397,+2.498800E+01
1031409,+2.498500E+01
1031421,+2.498800E+01
1031433,+2.498400E+01
1031445,+2.498600E+01
1031457,+2.498600E+01
1031469,+2.498000E+01
1031481,+2.498700E+01
1031493,+2.498200E+01
1031505,+2.498300E+01
1031517,+2.499100E+01
1031529,+2.498400E+01
1031541,+2.498900E+01
1031553,+2.498400E+01
1031565,+2.498600E+01
1031577,+2.498700E+01
1031589,+2.497900E+01
1031601,+2.498700E+01
1031613,+2.498400E+01
1031625,+2.498500E+01
1031637,+2.499000E+01
1031649,+2.498100E+01
1031661,+2.498700E+01
1031673,+2.498400E+01
1031685,+2.498200E+01
1031697,+2.498800E+01
1031709,+2.498200E+01
1031721,+2.498900E+01
1031733,+2.498400E+01
1031745,+2.498400E+01
1031757,+2.498900E+01
1031769,+2.498200E+01
1031781,+2.498800E+01
1031793,+2.498600E+01
1031805,+2.498400E+01
1031817,+2.499100E+01
1031829,+2.498000E+01
1031841,+2.499000E+01
1031853,+2.498400E+01
1031865,+2.498500E+01
1031877,+2.498900E+01
1031889,+2.498400E+01
1031901,+2.499100E+01
1031913,+2.498500E+01
1031925,+2.498400E+01
1031937,+2.498700E+01
1031949,+2.498300E+01
1031961,+2.499000E+01
1031973,+2.498500E+01
1031985,+2.498500E+01
1031997,+2.498900E+01
1032009,+2.498600E+01
1032021,+2.498800E+01
1032033,+2.498600E+01
1032045,+2.498700E+01
1032057,+2.498500E+01
1032069,+2.498400E+01
1032081,+2.499100E+01
1032093,+2.498400E+01
1032105,+2.498600E+01
1032117,+2.499000E+01
1032129,+2.498400E+01
1032141,+2.498700E+01
1032153,+2.498500E+01
1032165,+2.498500E+01
1032177,+2.498900E+01
1032189,+2.498500E+01
1032201,+2.498800E+01
1032213,+2.498500E+01
1032225,+2.498700E+01
1032237,+2.499000E+01
1032249,+2.498600E+01
1032261,+2.499100E+01
1032273,+2.498100E+01
1032285,+2.498600E+01
1032297,+2.499100E+01
1032309,+2.498200E+01
1032321,+2.499100E+01
1032333,+2.498700E+01
1032345,+2.498600E+01
1032357,+2.499100E+01
1032369,+2.498300E+01
1032381,+2.499000E+01
1032393,+2.498500E+01
1032405,+2.498700E+01
1032417,+2.498900E+01
1032429,+2.498500E+01
1032441,+2.499100E+01
1032453,+2.498200E+01
1032465,+2.498900E+01
1032477,+2.499100E+01
1032489,+2.498500E+01
1032501,+2.499100E+01
1032513,+2.498700E+01
1032525,+2.498800E+01
1032537,+2.499200E+01
1032549,+2.498600E+01
1032561,+2.498900E+01
1032573,+2.498400E+01
1032585,+2.498900E+01
1032597,+2.499000E+01
1032609,+2.498500E+01
1032621,+2.499100E+01
1032633,+2.498300E+01
1032645,+2.498700E+01
1032657,+2.499000E+01
1032669,+2.498400E+01
1032681,+2.499300E+01
1032693,+2.498500E+01
1032705,+2.499000E+01
1032717,+2.498900E+01
1032729,+2.498400E+01
1032741,+2.499100E+01
1032753,+2.498400E+01
1032765,+2.498800E+01
1032777,+2.499100E+01
1032789,+2.498700E+01
1032801,+2.499100E+01
1032813,+2.498500E+01
1032825,+2.498900E+01
1032837,+2.498900E+01
1032849,+2.498500E+01
1032861,+2.499200E+01
1032873,+2.498800E+01
1032885,+2.499100E+01
1032897,+2.498900E+01
1032909,+2.498700E+01
1032921,+2.499200E+01
1032933,+2.498500E+01
1032945,+2.499200E+01
1032957,+2.499200E+01
1032969,+2.498700E+01
1032981,+2.499300E+01
1032993,+2.498500E+01
1033005,+2.498700E+01
1033017,+2.499100E+01
1033029,+2.498800E+01
1033041,+2.499200E+01
1033053,+2.498500E+01
1033065,+2.498700E+01
1033077,+2.499200E+01
1033089,+2.498500E+01
1033101,+2.499200E+01
1033113,+2.498600E+01
1033125,+2.499000E+01
1033137,+2.499200E+01
1033149,+2.498700E+01
1033161,+2.499300E+01
1033173,+2.498600E+01
1033185,+2.499200E+01
1033197,+2.498900E+01
1033209,+2.498600E+01
1033221,+2.499300E+01
1033233,+2.498800E+01
1033245,+2.499000E+01
1033257,+2.499200E+01
1033269,+2.498900E+01
1033281,+2.499300E+01
1033293,+2.498700E+01
1033305,+2.499100E+01
1033317,+2.499000E+01
1033329,+2.498700E+01
1033341,+2.499500E+01
1033353,+2.498500E+01
1033365,+2.498900E+01
1033377,+2.499100E+01
1033389,+2.499000E+01
1033401,+2.499500E+01
1033413,+2.498700E+01
1033425,+2.499100E+01
1033437,+2.499200E+01
1033449,+2.498800E+01
1033461,+2.499400E+01
1033473,+2.498800E+01
1033485,+2.499100E+01
1033497,+2.499300E+01
1033509,+2.498900E+01
1033521,+2.499600E+01
1033533,+2.498900E+01
1033545,+2.499100E+01
1033557,+2.499300E+01
1033569,+2.499000E+01
1033581,+2.499200E+01
1033593,+2.498700E+01
1033605,+2.499100E+01
1033617,+2.499600E+01
1033629,+2.498800E+01
1033641,+2.499600E+01
1033653,+2.498900E+01
1033665,+2.499100E+01
1033677,+2.499400E+01
1033689,+2.499100E+01
1033701,+2.499700E+01
1033713,+2.498800E+01
1033725,+2.499500E+01
1033737,+2.499500E+01
1033749,+2.498800E+01
1033761,+2.499600E+01
1033773,+2.498800E+01
1033785,+2.499400E+01
1033797,+2.499200E+01
1033809,+2.498900E+01
1033821,+2.500000E+01
1033833,+2.499000E+01
1033845,+2.499400E+01
1033857,+2.499100E+01
1033869,+2.499100E+01
1033881,+2.499700E+01
1033893,+2.499000E+01
1033905,+2.499200E+01
1033917,+2.499500E+01
1033929,+2.499100E+01
1033941,+2.499400E+01
1033953,+2.498700E+01
1033965,+2.499200E+01
1033977,+2.499200E+01
1033989,+2.499000E+01
1034001,+2.499600E+01
1034013,+2.498900E+01
1034025,+2.499300E+01
1034037,+2.499300E+01
1034049,+2.499000E+01
1034061,+2.499200E+01
1034073,+2.498800E+01
1034085,+2.499400E+01
1034097,+2.499600E+01
1034109,+2.499100E+01
1034121,+2.499800E+01
1034133,+2.499000E+01
1034145,+2.499500E+01
1034157,+2.499300E+01
1034169,+2.499100E+01
1034181,+2.499600E+01
1034193,+2.499000E+01
1034205,+2.499300E+01
1034217,+2.499400E+01
1034229,+2.499200E+01
1034241,+2.499400E+01
1034253,+2.498800E+01
1034265,+2.499600E+01
1034277,+2.499200E+01
1034289,+2.499100E+01
1034301,+2.499800E+01
1034313,+2.498900E+01
1034325,+2.499500E+01
1034337,+2.499100E+01
1034349,+2.499100E+01
1034361,+2.499900E+01
1034373,+2.499100E+01
1034385,+2.499600E+01
1034397,+2.499500E+01
1034409,+2.498900E+01
1034421,+2.499900E+01
1034433,+2.499000E+01
1034445,+2.499800E+01
1034457,+2.499400E+01
1034469,+2.499000E+01
1034481,+2.499500E+01
1034493,+2.498800E+01
1034505,+2.499500E+01
1034517,+2.499400E+01
1034529,+2.499100E+01
1034541,+2.499600E+01
1034553,+2.499200E+01
1034565,+2.499600E+01
1034577,+2.499600E+01
1034589,+2.499200E+01
1034601,+2.499500E+01
1034613,+2.499100E+01
1034625,+2.499600E+01
1034637,+2.499200E+01
1034649,+2.499000E+01
1034661,+2.499700E+01
1034673,+2.499400E+01
1034685,+2.499600E+01
1034697,+2.499600E+01
1034709,+2.499200E+01
1034721,+2.499600E+01
1034733,+2.499100E+01
1034745,+2.499600E+01
1034757,+2.499400E+01
1034769,+2.499200E+01
1034781,+2.500000E+01
1034793,+2.499100E+01
1034805,+2.499600E+01
1034817,+2.499500E+01
1034829,+2.499300E+01
1034841,+2.499600E+01
1034853,+2.499200E+01
1034865,+2.499500E+01
1034877,+2.499400E+01
1034889,+2.499200E+01
1034901,+2.499800E+01
1034913,+2.499200E+01
1034925,+2.499600E+01
1034937,+2.499400E+01
1034949,+2.499100E+01
1034961,+2.499600E+01
1034973,+2.499100E+01
1034985,+2.499900E+01
1034997,+2.499300E+01
1035009,+2.499300E+01
1035021,+2.499700E+01
1035033,+2.499400E+01
1035045,+2.500100E+01
1035057,+2.499700E+01
1035069,+2.499500E+01
1035081,+2.499700E+01
1035093,+2.499100E+01
1035105,+2.499600E+01
1035117,+2.499300E+01
1035129,+2.499200E+01
1035141,+2.499900E+01
1035153,+2.499100E+01
1035165,+2.499600E+01
1035177,+2.499400E+01
1035189,+2.499300E+01
1035201,+2.499900E+01
1035213,+2.499100E+01
1035225,+2.499600E+01
1035237,+2.499500E+01
1035249,+2.499400E+01
1035261,+2.499900E+01
1035273,+2.499000E+01
1035285,+2.499800E+01
1035297,+2.499500E+01
1035309,+2.499500E+01
1035321,+2.500100E+01
1035333,+2.499300E+01
1035345,+2.499700E+01
1035357,+2.499600E+01
1035369,+2.499500E+01
1035381,+2.500000E+01
1035393,+2.499100E+01
1035405,+2.499700E+01
1035417,+2.499300E+01
1035429,+2.499200E+01
1035441,+2.499700E+01
1035453,+2.499400E+01
1035465,+2.499900E+01
1035477,+2.499500E+01
1035489,+2.499300E+01
1035501,+2.499900E+01
1035513,+2.499100E+01
1035525,+2.499600E+01
1035537,+2.499500E+01
1035549,+2.499400E+01
1035561,+2.499600E+01
1035573,+2.499200E+01
1035585,+2.499700E+01
1035597,+2.499600E+01
1035609,+2.499600E+01
1035621,+2.499900E+01
1035633,+2.499100E+01
1035645,+2.499800E+01
1035657,+2.499600E+01
1035669,+2.499600E+01
1035681,+2.499900E+01
1035693,+2.499300E+01
1035705,+2.499700E+01
1035717,+2.499900E+01
1035729,+2.499600E+01
1035741,+2.500100E+01
1035753,+2.499300E+01
1035765,+2.500100E+01
1035777,+2.499400E+01
1035789,+2.499700E+01
1035801,+2.500100E+01
1035813,+2.499300E+01
1035825,+2.499700E+01
1035837,+2.499600E+01
1035849,+2.499600E+01
1035861,+2.500000E+01
1035873,+2.499400E+01
1035885,+2.499900E+01
1035897,+2.499600E+01
1035909,+2.499500E+01
1035921,+2.500100E+01
1035933,+2.499800E+01
1035945,+2.499900E+01
1035957,+2.499600E+01
1035969,+2.499800E+01
1035981,+2.500100E+01
1035993,+2.499500E+01
1036005,+2.500100E+01
1036017,+2.499700E+01
1036029,+2.499700E+01
1036041,+2.500000E+01
1036053,+2.499400E+01
1036065,+2.500100E+01
1036077,+2.499500E+01
1036089,+2.499800E+01
1036101,+2.500200E+01
1036113,+2.499300E+01
1036125,+2.499900E+01
1036137,+2.500000E+01
1036149,+2.500000E+01
1036161,+2.500300E+01
1036173,+2.499600E+01
1036185,+2.500100E+01
1036197,+2.499600E+01
1036209,+2.499600E+01
1036221,+2.500100E+01
1036233,+2.499600E+01
1036245,+2.500100E+01
1036257,+2.499900E+01
1036269,+2.499600E+01
1036281,+2.500300E+01
1036293,+2.499600E+01
1036305,+2.500200E+01
1036317,+2.499800E+01
1036329,+2.499600E+01
1036341,+2.500100E+01
1036353,+2.499500E+01
1036365,+2.500000E+01
1036377,+2.499600E+01
1036389,+2.499900E+01
1036401,+2.500200E+01
1036413,+2.499600E+01
1036425,+2.500300E+01
1036437,+2.499700E+01
1036449,+2.499600E+01
1036461,+2.500200E+01
1036473,+2.499600E+01
1036485,+2.500200E+01
1036497,+2.499700E+01
1036509,+2.499800E+01
1036521,+2.500100E+01
1036533,+2.499900E+01
1036545,+2.499900E+01
1036557,+2.499700E+01
1036569,+2.499800E+01
1036581,+2.500300E+01
1036593,+2.499200E+01
1036605,+2.500300E+01
1036617,+2.499600E+01
1036629,+2.499700E+01
1036641,+2.500000E+01
1036653,+2.499400E+01
1036665,+2.500100E+01
1036677,+2.499900E+01
1036689,+2.499600E+01
1036701,+2.500200E+01
1036713,+2.500000E+01
1036725,+2.500100E+01
1036737,+2.499900E+01
1036749,+2.499600E+01
1036761,+2.500100E+01
1036773,+2.499700E+01
1036785,+2.500300E+01
1036797,+2.500000E+01
1036809,+2.499900E+01
1036821,+2.500200E+01
1036833,+2.499700E+01
1036845,+2.500100E+01
1036857,+2.500000E+01
1036869,+2.499800E+01
1036881,+2.500600E+01
1036893,+2.499600E+01
1036905,+2.500200E+01
1036917,+2.500000E+01
1036929,+2.500000E+01
1036941,+2.500400E+01
1036953,+2.499600E+01
1036965,+2.500200E+01
1036977,+2.500000E+01
1036989,+2.499700E+01
1037001,+2.500500E+01
1037013,+2.499700E+01
1037025,+2.500200E+01
1037037,+2.499800E+01
1037049,+2.500100E+01
1037061,+2.500300E+01
1037073,+2.500100E+01
1037085,+2.500400E+01
1037097,+2.499800E+01
1037109,+2.500200E+01
1037121,+2.500300E+01
1037133,+2.499600E+01
1037145,+2.500300E+01
1037157,+2.499800E+01
1037169,+2.500000E+01
1037181,+2.500700E+01
1037193,+2.499800E+01
1037205,+2.500400E+01
1037217,+2.500000E+01
1037229,+2.500000E+01
1037241,+2.500500E+01
1037253,+2.499700E+01
1037265,+2.500500E+01
1037277,+2.499800E+01
1037289,+2.499900E+01
1037301,+2.500500E+01
1037313,+2.499700E+01
1037325,+2.500400E+01
1037337,+2.500100E+01
1037349,+2.500100E+01
1037361,+2.500400E+01
1037373,+2.500100E+01
1037385,+2.500500E+01
1037397,+2.499900E+01
1037409,+2.500300E+01
1037421,+2.500500E+01
1037433,+2.499500E+01
1037445,+2.500400E+01
1037457,+2.500100E+01
1037469,+2.500200E+01
1037481,+2.500500E+01
1037493,+2.500000E+01
1037505,+2.500700E+01
1037517,+2.500000E+01
1037529,+2.500300E+01
1037541,+2.500700E+01
1037553,+2.499700E+01
1037565,+2.500500E+01
1037577,+2.499900E+01
1037589,+2.500100E+01
1037601,+2.500500E+01
1037613,+2.499900E+01
1037625,+2.500600E+01
1037637,+2.500000E+01
1037649,+2.500100E+01
1037661,+2.500500E+01
1037673,+2.499900E+01
1037685,+2.500700E+01
1037697,+2.500300E+01
1037709,+2.500600E+01
1037721,+2.500500E+01
1037733,+2.499800E+01
1037745,+2.500600E+01
1037757,+2.500100E+01
1037769,+2.500200E+01
1037781,+2.500600E+01
1037793,+2.499900E+01
1037805,+2.500500E+01
1037817,+2.500100E+01
1037829,+2.500100E+01
1037841,+2.500400E+01
1037853,+2.500100E+01
1037865,+2.500700E+01
1037877,+2.500100E+01
1037889,+2.500500E+01
1037901,+2.500400E+01
1037913,+2.500100E+01
1037925,+2.500600E+01
1037937,+2.500000E+01
1037949,+2.500300E+01
1037961,+2.500600E+01
1037973,+2.500000E+01
1037985,+2.500800E+01
1037997,+2.500400E+01
1038009,+2.500500E+01
1038021,+2.500400E+01
1038033,+2.500100E+01
1038045,+2.500800E+01
1038057,+2.499600E+01
1038069,+2.500700E+01
1038081,+2.500400E+01
1038093,+2.500100E+01
1038117,+2.500400E+01
1038129,+2.501100E+01
1038141,+2.500400E+01
1038153,+2.500700E+01
1038165,+2.500700E+01
1038177,+2.500200E+01
1038189,+2.500200E+01
1038201,+2.500500E+01
1038213,+2.499900E+01
1038225,+2.501000E+01
1038237,+2.500300E+01
1038249,+2.500500E+01
1038261,+2.500500E+01
1038273,+2.500400E+01
1038285,+2.500600E+01
1038297,+2.499900E+01
1038309,+2.500500E+01
1038321,+2.500400E+01
1038333,+2.500500E+01
1038345,+2.500700E+01
1038357,+2.500100E+01
1038369,+2.500400E+01
1038381,+2.500800E+01
1038393,+2.500100E+01
1038405,+2.500700E+01
1038417,+2.500300E+01
1038429,+2.500600E+01
1038441,+2.500300E+01
1038453,+2.500400E+01
1038465,+2.500700E+01
1038477,+2.500100E+01
1038489,+2.500700E+01
1038501,+2.500700E+01
1038513,+2.500100E+01
1038525,+2.500500E+01
1038537,+2.500100E+01
1038549,+2.500600E+01
1038561,+2.500600E+01
1038573,+2.500100E+01
1038585,+2.500900E+01
1038597,+2.500300E+01
1038609,+2.500800E+01
1038621,+2.500900E+01
1038633,+2.500100E+01
1038645,+2.501000E+01
1038657,+2.500300E+01
1038669,+2.500500E+01
1038681,+2.500700E+01
1038693,+2.500200E+01
1038705,+2.500700E+01
1038717,+2.500100E+01
1038729,+2.500700E+01
1038741,+2.500900E+01
1038753,+2.500500E+01
1038765,+2.501000E+01
1038777,+2.500300E+01
1038789,+2.500400E+01
1038801,+2.500700E+01
1038813,+2.500200E+01
1038825,+2.500700E+01
1038837,+2.500200E+01
1038849,+2.500700E+01
1038861,+2.500800E+01
1038873,+2.500500E+01
1038885,+2.500900E+01
1038897,+2.500300E+01
1038909,+2.500800E+01
1038921,+2.500800E+01
1038933,+2.500300E+01
1038945,+2.500700E+01
1038957,+2.500300E+01
1038969,+2.500800E+01
1038981,+2.500700E+01
1038993,+2.500300E+01
1039005,+2.500900E+01
1039017,+2.500200E+01
1039029,+2.500900E+01
1039041,+2.500600E+01
1039053,+2.500200E+01
1039065,+2.500600E+01
1039077,+2.500400E+01
1039089,+2.500600E+01
1039101,+2.500800E+01
1039113,+2.500600E+01
1039125,+2.500600E+01
1039137,+2.500300E+01
1039149,+2.500700E+01
1039161,+2.500700E+01
1039173,+2.500500E+01
1039185,+2.501200E+01
1039197,+2.500200E+01
1039209,+2.500700E+01
1039221,+2.500500E+01
1039233,+2.500300E+01
1039245,+2.500900E+01
1039257,+2.500500E+01
1039269,+2.500600E+01
1039281,+2.501000E+01
1039293,+2.500700E+01
1039305,+2.501300E+01
1039317,+2.500300E+01
1039329,+2.500800E+01
1039341,+2.501000E+01
1039353,+2.500600E+01
1039365,+2.500900E+01
1039377,+2.500500E+01
1039389,+2.500700E+01
1039401,+2.500700E+01
1039413,+2.500600E+01
1039425,+2.501300E+01
1039437,+2.500400E+01
1039449,+2.500800E+01
1039461,+2.500900E+01
1039473,+2.500400E+01
1039485,+2.501200E+01
1039497,+2.500100E+01
1039509,+2.500900E+01
1039521,+2.500900E+01
1039533,+2.500400E+01
1039545,+2.501100E+01
1039557,+2.500600E+01
1039569,+2.500800E+01
1039581,+2.500700E+01
1039593,+2.500400E+01
1039605,+2.501200E+01
1039617,+2.500300E+01
1039629,+2.500900E+01
1039641,+2.500900E+01
1039653,+2.500400E+01
1039665,+2.501100E+01
1039677,+2.500600E+01
1039689,+2.500700E+01
1039701,+2.500700E+01
1039713,+2.500300E+01
1039725,+2.500900E+01
1039737,+2.500400E+01
1039749,+2.500900E+01
1039761,+2.501000E+01
1039773,+2.500700E+01
1039785,+2.500700E+01
1039797,+2.500300E+01
1039809,+2.500800E+01
1039821,+2.500900E+01
1039833,+2.500700E+01
1039845,+2.501000E+01
1039857,+2.500600E+01
1039869,+2.501200E+01
1039881,+2.501000E+01
1039893,+2.500500E+01
1039905,+2.501000E+01
1039917,+2.500900E+01
1039929,+2.500800E+01
1039941,+2.500700E+01
1039953,+2.500500E+01
1039965,+2.501000E+01
1039977,+2.500700E+01
1039989,+2.501000E+01
1040001,+2.501000E+01
1040013,+2.500900E+01
1040025,+2.501100E+01
1040037,+2.500500E+01
1040049,+2.501200E+01
1040061,+2.501100E+01
1040073,+2.500800E+01
1040085,+2.501200E+01
1040097,+2.500500E+01
1040109,+2.501000E+01
1040121,+2.500800E+01
1040133,+2.500700E+01
1040145,+2.501100E+01
1040157,+2.500700E+01
1040169,+2.501000E+01
1040181,+2.500900E+01
1040193,+2.500700E+01
1040205,+2.501300E+01
1040217,+2.500900E+01
1040229,+2.501300E+01
1040241,+2.501000E+01
1040253,+2.500700E+01
1040265,+2.501300E+01
1040277,+2.500600E+01
1040289,+2.501100E+01
1040301,+2.500900E+01
1040313,+2.501000E+01
1040325,+2.501300E+01
1040337,+2.500600E+01
1040349,+2.501100E+01
1040361,+2.501200E+01
1040373,+2.500600E+01
1040385,+2.501500E+01
1040397,+2.500700E+01
1040409,+2.501300E+01
1040421,+2.501200E+01
1040433,+2.500900E+01
1040445,+2.501500E+01
1040457,+2.500600E+01
1040469,+2.501300E+01
1040481,+2.501000E+01
1040493,+2.500800E+01
1040505,+2.501200E+01
1040517,+2.500600E+01
1040529,+2.501500E+01
1040541,+2.501000E+01
1040553,+2.501000E+01
1040565,+2.501300E+01
1040577,+2.500700E+01
1040589,+2.501200E+01
1040601,+2.501300E+01
1040613,+2.500900E+01
1040625,+2.501100E+01
1040637,+2.500900E+01
1040649,+2.501300E+01
1040661,+2.500800E+01
1040673,+2.501000E+01
1040685,+2.501200E+01
1040697,+2.500800E+01
1040709,+2.501200E+01
1040721,+2.501100E+01
1040733,+2.500800E+01
1040745,+2.501400E+01
1040757,+2.500600E+01
1040769,+2.501300E+01
1040781,+2.501000E+01
1040793,+2.501300E+01
1040805,+2.501400E+01
1040817,+2.500500E+01
1040829,+2.501100E+01
1040841,+2.501100E+01
1040853,+2.501000E+01
1040865,+2.501400E+01
1040877,+2.500700E+01
1040889,+2.501000E+01
1040901,+2.501100E+01
1040913,+2.501000E+01
1040925,+2.501400E+01
1040937,+2.500700E+01
1040949,+2.501400E+01
1040961,+2.501200E+01
1040973,+2.501100E+01
1040985,+2.501400E+01
1040997,+2.500900E+01
1041009,+2.501200E+01
1041021,+2.501100E+01
1041033,+2.500900E+01
1041045,+2.501700E+01
1041057,+2.500900E+01
1041069,+2.501300E+01
1041081,+2.501300E+01
1041093,+2.500800E+01
1041105,+2.501300E+01
1041117,+2.500900E+01
1041129,+2.501400E+01
1041141,+2.501300E+01
1041153,+2.501100E+01
1041165,+2.501700E+01
1041177,+2.501100E+01
1041189,+2.501200E+01
1041201,+2.501200E+01
1041213,+2.500900E+01
1041225,+2.501400E+01
1041237,+2.500900E+01
1041249,+2.501500E+01
1041261,+2.501300E+01
1041273,+2.500900E+01
1041285,+2.501500E+01
1041297,+2.500900E+01
1041309,+2.501400E+01
1041321,+2.501600E+01
1041333,+2.501200E+01
1041345,+2.501600E+01
1041357,+2.500800E+01
1041369,+2.501300E+01
1041381,+2.501500E+01
1041393,+2.501100E+01
1041405,+2.501900E+01
1041417,+2.501000E+01
1041429,+2.501400E+01
1041441,+2.501300E+01
1041453,+2.501200E+01
1041465,+2.501600E+01
1041477,+2.501200E+01
1041489,+2.501500E+01
1041501,+2.501100E+01
1041513,+2.501200E+01
1041525,+2.501600E+01
1041537,+2.501000E+01
1041549,+2.501600E+01
1041561,+2.501200E+01
1041573,+2.501000E+01
1041585,+2.501700E+01
1041597,+2.501200E+01
1041609,+2.501600E+01
1041621,+2.501500E+01
1041633,+2.501000E+01
1041645,+2.502000E+01
1041657,+2.501400E+01
1041669,+2.501800E+01
1041681,+2.501400E+01
1041693,+2.501400E+01
1041705,+2.501900E+01
1041717,+2.501200E+01
1041729,+2.501600E+01
1041741,+2.501700E+01
1041753,+2.501100E+01
1041765,+2.501700E+01
1041777,+2.501400E+01
1041789,+2.501700E+01
1041801,+2.501600E+01
1041813,+2.501300E+01
1041825,+2.501900E+01
1041837,+2.501100E+01
1041849,+2.501400E+01
1041861,+2.501500E+01
1041873,+2.501300E+01
1041885,+2.501900E+01
1041897,+2.501200E+01
1041909,+2.501700E+01
1041921,+2.501300E+01
1041933,+2.501600E+01
1041945,+2.501900E+01
1041957,+2.501300E+01
1041969,+2.501900E+01
1041981,+2.501500E+01
1041993,+2.501400E+01
1042005,+2.502000E+01
1042017,+2.501100E+01
1042029,+2.501700E+01
1042041,+2.501400E+01
1042053,+2.501600E+01
1042065,+2.502100E+01
1042077,+2.501300E+01
1042089,+2.501700E+01
1042101,+2.501400E+01
1042113,+2.501500E+01
1042125,+2.501600E+01
1042137,+2.501300E+01
1042149,+2.501800E+01
1042161,+2.501400E+01
1042173,+2.501300E+01
1042185,+2.502100E+01
1042197,+2.501100E+01
1042209,+2.501900E+01
1042221,+2.501300E+01
1042233,+2.501500E+01
1042245,+2.502000E+01
1042257,+2.501200E+01
1042269,+2.501800E+01
1042281,+2.501500E+01
1042293,+2.501700E+01
1042305,+2.501900E+01
1042317,+2.501200E+01
1042329,+2.502100E+01
1042341,+2.501400E+01
1042353,+2.501600E+01
1042365,+2.502000E+01
1042377,+2.501500E+01
1042389,+2.501700E+01
1042401,+2.501500E+01
1042413,+2.501500E+01
1042425,+2.502400E+01
1042437,+2.501400E+01
1042449,+2.502200E+01
1042461,+2.501600E+01
1042473,+2.501800E+01
1042485,+2.502000E+01
1042497,+2.501500E+01
1042509,+2.501800E+01
1042521,+2.501600E+01
1042533,+2.501300E+01
1042545,+2.502100E+01
1042557,+2.501400E+01
1042569,+2.502100E+01
1042581,+2.501700E+01
1042593,+2.501600E+01
1042605,+2.501800E+01
1042617,+2.501100E+01
1042629,+2.501800E+01
1042641,+2.501500E+01
1042653,+2.501600E+01
1042665,+2.502100E+01
1042677,+2.501400E+01
1042689,+2.502000E+01
1042701,+2.501700E+01
1042713,+2.501600E+01
1042725,+2.501800E+01
1042737,+2.501700E+01
1042749,+2.501600E+01
1042761,+2.501700E+01
1042773,+2.501800E+01
1042785,+2.501900E+01
1042797,+2.501500E+01
1042809,+2.501900E+01
1042821,+2.501400E+01
1042833,+2.501400E+01
1042845,+2.502000E+01
1042857,+2.501300E+01
1042869,+2.501900E+01
1042881,+2.501700E+01
1042893,+2.501900E+01
1042905,+2.502200E+01
1042917,+2.501300E+01
1042929,+2.502100E+01
1042941,+2.501500E+01
1042953,+2.501300E+01
1042965,+2.502300E+01
1042977,+2.501800E+01
1042989,+2.502000E+01
1043001,+2.501600E+01
1043013,+2.501600E+01
1043025,+2.502100E+01
1043037,+2.501500E+01
1043049,+2.502100E+01
1043061,+2.501800E+01
1043073,+2.501900E+01
1043085,+2.502200E+01
1043097,+2.501700E+01
1043109,+2.502300E+01
1043121,+2.501900E+01
1043133,+2.501700E+01
1043145,+2.502300E+01
1043157,+2.501800E+01
1043169,+2.502300E+01
1043181,+2.501700E+01
1043193,+2.501700E+01
1043205,+2.502400E+01
1043217,+2.501400E+01
1043229,+2.502100E+01
1043241,+2.501700E+01
1043253,+2.501800E+01
1043265,+2.502600E+01
1043277,+2.501400E+01
1043289,+2.502200E+01
1043301,+2.501700E+01
1043313,+2.502000E+01
1043325,+2.502200E+01
1043337,+2.501500E+01
1043349,+2.502300E+01
1043361,+2.501900E+01
1043373,+2.502000E+01
1043385,+2.502300E+01
1043397,+2.501700E+01
1043409,+2.502400E+01
1043421,+2.501800E+01
1043433,+2.501900E+01
1043445,+2.502000E+01
1043457,+2.501400E+01
1043469,+2.502400E+01
1043481,+2.501900E+01
1043493,+2.501800E+01
1043505,+2.501900E+01
1043517,+2.501900E+01
1043529,+2.502100E+01
1043541,+2.501700E+01
1043553,+2.501800E+01
1043565,+2.502300E+01
1043577,+2.501300E+01
1043589,+2.502400E+01
1043601,+2.501700E+01
1043613,+2.502000E+01
1043625,+2.502200E+01
1043637,+2.501700E+01
1043649,+2.502100E+01
1043661,+2.501700E+01
1043673,+2.502200E+01
1043685,+2.502300E+01
1043697,+2.501700E+01
1043709,+2.502200E+01
1043721,+2.501500E+01
1043733,+2.502000E+01
1043745,+2.502200E+01
1043757,+2.501400E+01
1043769,+2.502200E+01
1043781,+2.501700E+01
1043793,+2.501700E+01
1043805,+2.502500E+01
1043817,+2.501800E+01
1043829,+2.502300E+01
1043841,+2.501800E+01
1043853,+2.501900E+01
1043865,+2.502300E+01
1043877,+2.501700E+01
1043889,+2.502400E+01
1043901,+2.501700E+01
1043913,+2.501900E+01
1043925,+2.502300E+01
1043937,+2.501800E+01
1043949,+2.502200E+01
1043961,+2.501700E+01
1043973,+2.502100E+01
1043985,+2.502200E+01
1043997,+2.501800E+01
1044009,+2.502300E+01
1044021,+2.502000E+01
1044033,+2.501600E+01
1044045,+2.502200E+01
1044057,+2.501600E+01
1044069,+2.502300E+01
1044081,+2.502100E+01
1044093,+2.502100E+01
1044105,+2.502300E+01
1044117,+2.501500E+01
1044129,+2.502300E+01
1044141,+2.501800E+01
1044153,+2.501900E+01
1044165,+2.502600E+01
1044177,+2.501800E+01
1044189,+2.502400E+01
1044201,+2.501800E+01
1044213,+2.502000E+01
1044225,+2.502300E+01
1044237,+2.501800E+01
1044249,+2.502300E+01
1044261,+2.502100E+01
1044273,+2.502400E+01
1044285,+2.502300E+01
1044297,+2.501700E+01
1044309,+2.502100E+01
1044321,+2.502000E+01
1044333,+2.502200E+01
1044345,+2.502400E+01
1044357,+2.501800E+01
1044369,+2.502300E+01
1044381,+2.501700E+01
1044393,+2.502000E+01
1044405,+2.502400E+01
1044417,+2.501800E+01
1044429,+2.502200E+01
1044441,+2.501700E+01
1044453,+2.502000E+01
1044465,+2.502500E+01
1044477,+2.501700E+01
1044489,+2.502500E+01
1044501,+2.502000E+01
1044513,+2.502200E+01
1044525,+2.502300E+01
1044537,+2.501800E+01
1044549,+2.502500E+01
1044561,+2.502200E+01
1044573,+2.502100E+01
1044585,+2.502300E+01
1044597,+2.502200E+01
1044609,+2.502600E+01
1044621,+2.501900E+01
1044633,+2.502100E+01
1044645,+2.502500E+01
1044657,+2.502000E+01
1044669,+2.502500E+01
1044681,+2.502000E+01
1044693,+2.502300E+01
1044705,+2.502600E+01
1044717,+2.501900E+01
1044729,+2.502400E+01
1044741,+2.502100E+01
1044753,+2.502000E+01
1044765,+2.502700E+01
1044777,+2.501900E+01
1044789,+2.502700E+01
1044801,+2.501800E+01
1044813,+2.502300E+01
1044825,+2.502500E+01
1044837,+2.501900E+01
1044849,+2.502600E+01
1044861,+2.502200E+01
1044873,+2.502300E+01
1044885,+2.502300E+01
1044897,+2.501900E+01
1044909,+2.502300E+01
1044921,+2.502300E+01
1044933,+2.502200E+01
1044945,+2.502800E+01
1044957,+2.502600E+01
1044969,+2.502700E+01
1044981,+2.502100E+01
1044993,+2.502500E+01
1045005,+2.502700E+01
1045017,+2.502200E+01
1045029,+2.502600E+01
1045041,+2.502200E+01
1045053,+2.502400E+01
1045065,+2.502700E+01
1045077,+2.502000E+01
1045089,+2.502600E+01
1045101,+2.502200E+01
1045113,+2.502500E+01
1045125,+2.502600E+01
1045137,+2.502000E+01
1045149,+2.502700E+01
1045161,+2.502200E+01
1045173,+2.502400E+01
1045185,+2.502700E+01
1045197,+2.502200E+01
1045209,+2.502800E+01
1045221,+2.502100E+01
1045233,+2.502500E+01
1045245,+2.502700E+01
1045257,+2.502000E+01
1045269,+2.502800E+01
1045281,+2.502600E+01
1045293,+2.502300E+01
1045305,+2.502500E+01
1045317,+2.502100E+01
1045329,+2.502800E+01
1045341,+2.502300E+01
1045353,+2.502700E+01
1045365,+2.502600E+01
1045377,+2.502300E+01
1045389,+2.502800E+01
1045401,+2.502200E+01
1045413,+2.502200E+01
1045425,+2.502700E+01
1045437,+2.502000E+01
1045449,+2.502700E+01
1045461,+2.502400E+01
1045473,+2.502500E+01
1045485,+2.502800E+01
1045497,+2.502200E+01
1045509,+2.502800E+01
1045521,+2.502400E+01
1045533,+2.502700E+01
1045545,+2.502800E+01
1045557,+2.502100E+01
1045569,+2.502800E+01
1045581,+2.502400E+01
1045593,+2.502600E+01
1045605,+2.503100E+01
1045617,+2.502200E+01
1045629,+2.502800E+01
1045641,+2.502300E+01
1045653,+2.502500E+01
1045665,+2.503200E+01
1045677,+2.502000E+01
1045689,+2.502800E+01
1045701,+2.502200E+01
1045713,+2.502600E+01
1045725,+2.502800E+01
1045737,+2.502300E+01
1045749,+2.502800E+01
1045761,+2.502400E+01
1045773,+2.502800E+01
