979344,+3.311154E+01
979354,+1.649615E+01
979364,+2.730769E-01
979374,-1.315000E+01
979384,-2.460000E+01
979394,-3.401923E+01
979404,-3.831923E+01
979414,-3.925769E+01
979424,-3.909615E+01
979434,-3.883846E+01
979444,-3.772692E+01
979454,-3.669615E+01
979464,-3.582692E+01
979474,-3.520385E+01
979484,-3.484231E+01
979494,-3.378846E+01
979504,-3.240769E+01
979514,-3.213462E+01
979524,-3.257692E+01
979534,-3.274231E+01
979544,-3.278846E+01
979554,-3.197308E+01
979564,-3.083846E+01
979574,-3.010000E+01
979584,-2.946923E+01
979594,-2.893462E+01
979604,-2.872692E+01
979614,-2.893077E+01
979624,-2.772692E+01
979634,-2.558077E+01
979644,-2.311538E+01
979654,-2.162308E+01
979664,-2.104231E+01
979674,-2.028846E+01
979684,-1.904615E+01
979694,-1.867692E+01
979704,-1.789231E+01
979714,-1.614615E+01
979724,-1.413077E+01
979734,-1.090000E+01
979744,-7.761538E+00
979754,-4.280769E+00
979764,-1.192308E-01
979774,+4.019231E+00
979784,+7.250000E+00
979794,+1.006154E+01
979804,+1.054615E+01
979814,+9.280769E+00
979824,+6.780769E+00
979834,+2.700000E+00
979844,-9.961538E-01
979854,-5.492308E+00
979864,-1.060769E+01
979874,-1.536154E+01
979884,-2.103846E+01
979894,-2.598846E+01
979904,-2.007308E+01
979914,+1.280769E+01
979924,+3.740385E+01
979934,+4.243462E+01
979944,+3.291923E+01
979954,+2.906923E+01
979964,+2.900000E+01
979974,+2.960769E+01
979984,+3.281538E+01
979994,+3.618462E+01
980004,+3.070000E+01
980014,-2.000000E-01
980024,-2.161154E+01
980034,-2.303462E+01
980044,-9.884615E+00
980054,-1.488462E+00
980064,+3.130769E+00
980074,+6.757692E+00
980084,+1.071538E+01
980094,+1.740769E+01
980104,+2.442308E+01
980114,+3.153462E+01
980124,+4.000769E+01
980134,+4.816538E+01
980144,+5.644231E+01
980154,+6.598077E+01
980164,+7.801538E+01
980174,+9.006154E+01
980184,+1.003385E+02
980194,+1.037077E+02
980204,+1.037577E+02
980214,+1.000654E+02
980224,+9.147308E+01
980234,+7.972308E+01
980244,+6.622308E+01
980254,+5.006538E+01
980264,+3.081923E+01
980274,+1.219231E+01
980284,-5.661538E+00
980294,-1.953462E+01
980304,-3.064615E+01
980314,-3.809615E+01
980324,-4.215000E+01
980334,-4.329231E+01
980344,-4.360769E+01
980354,-4.280000E+01
980364,-4.116538E+01
980374,-3.995000E+01
980384,-3.783846E+01
980394,-3.474231E+01
980404,-3.212692E+01
980414,-3.165385E+01
980424,-3.185385E+01
980434,-3.192308E+01
980444,-3.126154E+01
980454,-3.110769E+01
980464,-3.126154E+01
980474,-3.172308E+01
980484,-3.245769E+01
980494,-3.361538E+01
980504,-3.453077E+01
980514,-3.369231E+01
980524,-3.214231E+01
980534,-3.145000E+01
980544,-3.208077E+01
980554,-3.225000E+01
980564,-3.103077E+01
980574,-2.927692E+01
980584,-2.818462E+01
980594,-2.761923E+01
980604,-2.629615E+01
980614,-2.419231E+01
980624,-2.156154E+01
980634,-1.797692E+01
980644,-1.308846E+01
980654,-7.780769E+00
980664,-5.003846E+00
980674,-4.038462E+00
980684,-3.692308E+00
980694,-4.123077E+00
980704,-5.165385E+00
980714,-7.342308E+00
980724,-1.089615E+01
980734,-1.562692E+01
980744,-1.993077E+01
980754,-2.365000E+01
980764,-2.770385E+01
980774,-3.105000E+01
980784,-1.958077E+01
980794,+9.342308E+00
980804,+2.614231E+01
980814,+2.428077E+01
980824,+1.450769E+01
980834,+8.646154E+00
980844,+9.550000E+00
980854,+9.253846E+00
980864,+1.034615E+01
980874,+1.258077E+01
980884,+1.923077E+00
980894,-2.458462E+01
980904,-3.926154E+01
980914,-3.493462E+01
980924,-2.131154E+01
980934,-9.884615E+00
980944,-5.938462E+00
980954,-2.003846E+00
980964,+3.061538E+00
980974,+8.819231E+00
980984,+1.498077E+01
980994,+2.112308E+01
981004,+2.818077E+01
981014,+3.605385E+01
981024,+4.498846E+01
981034,+5.334615E+01
981044,+6.118846E+01
981054,+6.976154E+01
981064,+7.802692E+01
981074,+8.408462E+01
981084,+8.586154E+01
981094,+8.141538E+01
981104,+7.488077E+01
981114,+6.588846E+01
981124,+5.232692E+01
981134,+3.758846E+01
981144,+2.261154E+01
981154,+6.873077E+00
981164,-9.434615E+00
981174,-2.479615E+01
981184,-3.763846E+01
981194,-4.353462E+01
981204,-4.707308E+01
981214,-4.898846E+01
981224,-4.894231E+01
981234,-4.904615E+01
981244,-4.831923E+01
981254,-4.666923E+01
981264,-4.454615E+01
981274,-4.331538E+01
981284,-4.181538E+01
981294,-4.068846E+01
981304,-3.942308E+01
981314,-3.895769E+01
981324,-3.897308E+01
981334,-3.848462E+01
981344,-3.781538E+01
981354,-3.714615E+01
981364,-3.627308E+01
981374,-3.444231E+01
981384,-3.286923E+01
981394,-3.247692E+01
981404,-3.315769E+01
981414,-3.198077E+01
981424,-3.008462E+01
981434,-2.841154E+01
981444,-2.683846E+01
981454,-2.587692E+01
981464,-2.547308E+01
981474,-2.491538E+01
981484,-2.441538E+01
981494,-2.368077E+01
981504,-2.261923E+01
981514,-2.141154E+01
981524,-1.733462E+01
981534,-1.265000E+01
981544,-8.903846E+00
981554,-6.369231E+00
981564,-4.711538E+00
981574,-4.576923E+00
981584,-5.103846E+00
981594,-4.896154E+00
981604,-4.730769E+00
981614,-5.753846E+00
981624,-9.334615E+00
981634,-1.240385E+01
981644,-1.531538E+01
981654,-1.950000E+01
981664,-2.290385E+01
981674,-1.126923E+01
981684,+1.702692E+01
981694,+3.301154E+01
981704,+3.110000E+01
981714,+2.166923E+01
981724,+1.582308E+01
981734,+1.619231E+01
981744,+1.591538E+01
981754,+1.793077E+01
981764,+2.028077E+01
981774,+8.776923E+00
981784,-1.845000E+01
981794,-3.314615E+01
981804,-2.927692E+01
981814,-1.821154E+01
981824,-1.091538E+01
981834,-1.000769E+01
981844,-7.138462E+00
981854,-3.503846E+00
981864,+5.115385E-01
981874,+5.519231E+00
981884,+1.199615E+01
981894,+1.928077E+01
981904,+2.660000E+01
981914,+3.501538E+01
981924,+4.483846E+01
981934,+5.607308E+01
981944,+6.667692E+01
981954,+7.489231E+01
981964,+8.090769E+01
981974,+8.465385E+01
981984,+8.212692E+01
981994,+7.532308E+01
982004,+6.587308E+01
982014,+5.365769E+01
982024,+3.964231E+01
982034,+2.359231E+01
982044,+7.234615E+00
982054,-7.550000E+00
982064,-2.086154E+01
982074,-3.264231E+01
982084,-3.923846E+01
982094,-4.244231E+01
982104,-4.412692E+01
982114,-4.366154E+01
982124,-4.210000E+01
982134,-4.089615E+01
982144,-3.998077E+01
982154,-3.843846E+01
982164,-3.629231E+01
982174,-3.435000E+01
982184,-3.286923E+01
982194,-3.302692E+01
982204,-3.275000E+01
982214,-3.248462E+01
982224,-3.294615E+01
982234,-3.275769E+01
982244,-3.263846E+01
982254,-3.349615E+01
982264,-3.415769E+01
982274,-3.420000E+01
982284,-3.389615E+01
982294,-3.248077E+01
982304,-3.068462E+01
982314,-2.947308E+01
982324,-2.841154E+01
982334,-2.700000E+01
982344,-2.500769E+01
982354,-2.300769E+01
982364,-2.224615E+01
982374,-2.115385E+01
982384,-1.867692E+01
982394,-1.578462E+01
982404,-1.420000E+01
982414,-1.199231E+01
982424,-8.153846E+00
982434,-3.750000E+00
982444,+6.538462E-02
982454,+3.553846E+00
982464,+6.596154E+00
982474,+7.334615E+00
982484,+3.996154E+00
982494,-1.346154E-01
982504,-3.234615E+00
982514,-5.576923E+00
982524,-9.530769E+00
982534,-1.465769E+01
982544,-1.943077E+01
982554,-2.631154E+01
982564,-3.269231E+01
982574,-2.892308E+01
982584,-5.334615E+00
982594,+2.402692E+01
982604,+3.332308E+01
982614,+2.586538E+01
982624,+2.391538E+01
982634,+2.636538E+01
982644,+2.819231E+01
982654,+3.187692E+01
982664,+3.627308E+01
982674,+3.241154E+01
982684,+1.149615E+01
982694,-1.420769E+01
982704,-1.989615E+01
982714,-9.919231E+00
982724,-5.130769E+00
982734,-3.857692E+00
982744,-1.230769E+00
982754,+3.223077E+00
982764,+8.696154E+00
982774,+1.452692E+01
982784,+2.135385E+01
982794,+2.899231E+01
982804,+3.877692E+01
982814,+4.915000E+01
982824,+6.049231E+01
982834,+7.271154E+01
982844,+8.506154E+01
982854,+9.515385E+01
982864,+1.020423E+02
982874,+1.031692E+02
982884,+1.005462E+02
982894,+9.448462E+01
982904,+8.445769E+01
982914,+7.045385E+01
982924,+5.456538E+01
982934,+3.747692E+01
982944,+1.982308E+01
982954,+3.226923E+00
982964,-1.106538E+01
982974,-1.997692E+01
982984,-2.647692E+01
982994,-3.093462E+01
983004,-3.364615E+01
983014,-3.285000E+01
983024,-3.082308E+01
983034,-2.991923E+01
983044,-3.106538E+01
983054,-3.116538E+01
983064,-2.975769E+01
983074,-2.824615E+01
983084,-2.736154E+01
983094,-2.640769E+01
983104,-2.497692E+01
983114,-2.375385E+01
983124,-2.392308E+01
983134,-2.395385E+01
983144,-2.282692E+01
983154,-2.221923E+01
983164,-2.291154E+01
983174,-2.427308E+01
983184,-2.501154E+01
983194,-2.438846E+01
983204,-2.385385E+01
983214,-2.361538E+01
983224,-2.315385E+01
983234,-2.256538E+01
983244,-2.100000E+01
983254,-1.899615E+01
983264,-1.689231E+01
983274,-1.406923E+01
983284,-1.035385E+01
983294,-7.807692E+00
983304,-5.350000E+00
983314,-2.065385E+00
983324,+1.796154E+00
983334,+4.973077E+00
983344,+4.792308E+00
983354,+3.988462E+00
983364,+2.953846E+00
983374,+5.961538E-01
983384,-3.092308E+00
983394,-7.576923E+00
983404,-1.214615E+01
983414,-1.427308E+01
983424,-1.811923E+01
983434,-2.488462E+01
983444,-1.267692E+01
983454,+1.549231E+01
983464,+4.506154E+01
983474,+6.004231E+01
983484,+4.948077E+01
983494,+4.230385E+01
983504,+3.982308E+01
983514,+3.785000E+01
983524,+3.820000E+01
983534,+4.219231E+01
983544,+2.993462E+01
983554,+3.434615E+00
983564,-2.380769E+01
983574,-3.536538E+01
983584,-2.150385E+01
983594,-1.094231E+01
983604,-4.634615E+00
983614,-8.730769E-01
983624,+3.288462E+00
983634,+8.269231E+00
983644,+1.435385E+01
983654,+2.039231E+01
983664,+2.797692E+01
983674,+3.597692E+01
983684,+4.544231E+01
983694,+5.700769E+01
983704,+6.878077E+01
983714,+8.045769E+01
983724,+9.155000E+01
983734,+9.856538E+01
983744,+1.011462E+02
983754,+9.905769E+01
983764,+8.988846E+01
983774,+7.758846E+01
983784,+6.303077E+01
983794,+4.621923E+01
983804,+2.731154E+01
983814,+7.346154E+00
983824,-1.263462E+01
983834,-2.882308E+01
983844,-4.229231E+01
983854,-5.211538E+01
983864,-5.668077E+01
983874,-5.810385E+01
983884,-5.736538E+01
983894,-5.588077E+01
983904,-5.360000E+01
983914,-5.125385E+01
983924,-4.862692E+01
983934,-4.583462E+01
983944,-4.280385E+01
983954,-4.057692E+01
983964,-3.896154E+01
983974,-3.825000E+01
983984,-3.871154E+01
983994,-3.888077E+01
984004,-3.870769E+01
984014,-3.952308E+01
984024,-4.055000E+01
984034,-4.163846E+01
984044,-4.214231E+01
984054,-4.102308E+01
984064,-3.969615E+01
984074,-3.883462E+01
984084,-3.796538E+01
984094,-3.711538E+01
984104,-3.658462E+01
984114,-3.473462E+01
984124,-3.187692E+01
984134,-2.960000E+01
984144,-2.719231E+01
984154,-2.494615E+01
984164,-2.093846E+01
984174,-1.571154E+01
984184,-9.796154E+00
984194,-6.280769E+00
984204,-4.165385E+00
984214,-3.657692E+00
984224,-5.211538E+00
984234,-6.415385E+00
984244,-8.107692E+00
984254,-1.139615E+01
984264,-1.649231E+01
984274,-2.132692E+01
984284,-2.631538E+01
984294,-3.134615E+01
984304,-3.286538E+01
984314,-1.846923E+01
984324,+1.126154E+01
984334,+4.112692E+01
984344,+3.795000E+01
984354,+2.884231E+01
984364,+2.331154E+01
984374,+2.327308E+01
984384,+2.337692E+01
984394,+2.587308E+01
984404,+2.659615E+01
984414,+1.273846E+01
984424,-1.587692E+01
984434,-4.429231E+01
984444,-3.787692E+01
984454,-2.444231E+01
984464,-1.434231E+01
984474,-1.045769E+01
984484,-6.542308E+00
984494,-2.711538E+00
984504,+1.315385E+00
984514,+6.750000E+00
984524,+1.370385E+01
984534,+2.132308E+01
984544,+2.825000E+01
984554,+3.696538E+01
984564,+4.661154E+01
984574,+5.689615E+01
984584,+6.697308E+01
984594,+7.582308E+01
984604,+8.251538E+01
984614,+8.518846E+01
984624,+8.065769E+01
984634,+7.289231E+01
984644,+6.278462E+01
984654,+4.951538E+01
984664,+3.422308E+01
984674,+1.762692E+01
984684,+7.576923E-01
984694,-1.492692E+01
984704,-2.855769E+01
984714,-3.961154E+01
984724,-4.485385E+01
984734,-4.773077E+01
984744,-4.887308E+01
984754,-4.873846E+01
984764,-4.746154E+01
984774,-4.577308E+01
984784,-4.352308E+01
984794,-4.097692E+01
984804,-3.906538E+01
984814,-3.805769E+01
984824,-3.723077E+01
984834,-3.575385E+01
984844,-3.432692E+01
984854,-3.446538E+01
984864,-3.558077E+01
984874,-3.602308E+01
984884,-3.653462E+01
984894,-3.721538E+01
984904,-3.721923E+01
984914,-3.682308E+01
984924,-3.606923E+01
984934,-3.538462E+01
984944,-3.438462E+01
984954,-3.263077E+01
984964,-2.996538E+01
984974,-2.743462E+01
984984,-2.622692E+01
984994,-2.610000E+01
985004,-2.634615E+01
985014,-2.474231E+01
985024,-2.173846E+01
985034,-1.836923E+01
985044,-1.537692E+01
985054,-1.272692E+01
985064,-1.047308E+01
985074,-8.769231E+00
985084,-6.880769E+00
985094,-6.350000E+00
985104,-6.315385E+00
985114,-7.850000E+00
985124,-1.043846E+01
985134,-1.466538E+01
985144,-1.934231E+01
985154,-2.261538E+01
985164,-2.670769E+01
985174,-3.310769E+01
985184,-3.467308E+01
985194,-3.642308E+00
985204,+2.855769E+01
985214,+4.492692E+01
985224,+4.261923E+01
985234,+3.776923E+01
985244,+3.821923E+01
985254,+3.938462E+01
985264,+4.176154E+01
985274,+4.578077E+01
985284,+4.530769E+01
985294,+1.446154E+01
985304,-1.521923E+01
985314,-2.829615E+01
985324,-2.346923E+01
985334,-1.577692E+01
985344,-1.218077E+01
985354,-9.088462E+00
985364,-5.857692E+00
985374,-1.542308E+00
985384,+3.946154E+00
985394,+1.009231E+01
985404,+1.560000E+01
985414,+2.405385E+01
985424,+3.401923E+01
985434,+4.493846E+01
985444,+5.658077E+01
985454,+6.763846E+01
985464,+7.771538E+01
985474,+8.624615E+01
985484,+8.929231E+01
985494,+8.842692E+01
985504,+8.401538E+01
985514,+7.383077E+01
985524,+6.148846E+01
985534,+4.717308E+01
985544,+3.026154E+01
985554,+1.232308E+01
985564,-4.584615E+00
985574,-1.949615E+01
985584,-2.958077E+01
985594,-3.756923E+01
985604,-4.298846E+01
985614,-4.539615E+01
985624,-4.676154E+01
985634,-4.719615E+01
985644,-4.653462E+01
985654,-4.472692E+01
985664,-4.301923E+01
985674,-4.213462E+01
985684,-4.125769E+01
985694,-4.028462E+01
985704,-3.973846E+01
985714,-3.948077E+01
985724,-3.845000E+01
985734,-3.687308E+01
985744,-3.601154E+01
985754,-3.565385E+01
985764,-3.525385E+01
985774,-3.558462E+01
985784,-3.620000E+01
985794,-3.537692E+01
985804,-3.312308E+01
985814,-3.196923E+01
985824,-3.260769E+01
985834,-3.343846E+01
985844,-3.275000E+01
985854,-3.208462E+01
985864,-3.214231E+01
985874,-3.046154E+01
985884,-2.796154E+01
985894,-2.608462E+01
985904,-2.539615E+01
985914,-2.340385E+01
985924,-2.010385E+01
985934,-1.596538E+01
985944,-1.025000E+01
985954,-4.823077E+00
985964,-1.653846E-01
985974,+2.465385E+00
985984,+1.738462E+00
985994,+1.115385E-01
986004,-1.661538E+00
986014,-3.911538E+00
986024,-6.426923E+00
986034,-9.792308E+00
986044,-1.508462E+01
986054,-1.887308E+01
986064,-2.407308E+01
986074,-3.123462E+01
986084,-3.097692E+01
986094,+3.542308E+00
986104,+3.857692E+01
986114,+5.652308E+01
986124,+4.816538E+01
986134,+4.328462E+01
986144,+4.291154E+01
986154,+4.279231E+01
986164,+4.462692E+01
986174,+4.963077E+01
986184,+5.067692E+01
986194,+1.885000E+01
986204,-1.333077E+01
986214,-2.821154E+01
986224,-1.650000E+01
986234,-7.007692E+00
986244,-2.334615E+00
986254,+7.346154E-01
986264,+4.815385E+00
986274,+1.000000E+01
986284,+1.622308E+01
986294,+2.332308E+01
986304,+3.206538E+01
986314,+4.151538E+01
986324,+5.142308E+01
986334,+6.097692E+01
986344,+7.191154E+01
986354,+8.335769E+01
986364,+9.373077E+01
986374,+1.001000E+02
986384,+1.030115E+02
986394,+1.020346E+02
986404,+9.618077E+01
986414,+8.404615E+01
986424,+6.970385E+01
986434,+5.393846E+01
986444,+3.617308E+01
986454,+1.796923E+01
986464,+6.153846E-01
986474,-1.348846E+01
986484,-2.594615E+01
986494,-3.590385E+01
986504,-4.220385E+01
986514,-4.240000E+01
986524,-4.107308E+01
986534,-3.916538E+01
986544,-3.699615E+01
986554,-3.523462E+01
986564,-3.333077E+01
986574,-3.121538E+01
986584,-2.891538E+01
986594,-2.683846E+01
986604,-2.506538E+01
986614,-2.417308E+01
986624,-2.375385E+01
986634,-2.297308E+01
986644,-2.186154E+01
986654,-2.051154E+01
986664,-2.028846E+01
986674,-2.063077E+01
986684,-2.062692E+01
986694,-2.039231E+01
986704,-2.079615E+01
986714,-2.173077E+01
986724,-2.265769E+01
986734,-2.326538E+01
986744,-2.346154E+01
986754,-2.298846E+01
986764,-2.093077E+01
986774,-1.818462E+01
986784,-1.493462E+01
986794,-1.092692E+01
986804,-5.346154E+00
986814,+5.153846E-01
986824,+5.276923E+00
986834,+7.796154E+00
986844,+7.888462E+00
986854,+7.184615E+00
986864,+5.323077E+00
986874,+2.553846E+00
986884,-1.126923E+00
986894,-5.588462E+00
986904,-1.080769E+01
986914,-1.598462E+01
986924,-2.248846E+01
986934,-2.716538E+01
986944,-2.457692E+00
986954,+2.988846E+01
986964,+5.106538E+01
986974,+5.231154E+01
986984,+4.254615E+01
986994,+3.882692E+01
987004,+3.804615E+01
987014,+3.873846E+01
987024,+4.190000E+01
987034,+4.416923E+01
987044,+1.853462E+01
987054,-1.380385E+01
987064,-3.385000E+01
987074,-3.273077E+01
987084,-2.016538E+01
987094,-1.312692E+01
987104,-8.711538E+00
987114,-5.238462E+00
987124,-8.615385E-01
987134,+4.926923E+00
987144,+1.197308E+01
987154,+1.955000E+01
987164,+2.871154E+01
987174,+3.807692E+01
987184,+4.775385E+01
987194,+5.898077E+01
987204,+7.069615E+01
987214,+8.246538E+01
987224,+9.259231E+01
987234,+9.673846E+01
987244,+9.717308E+01
987254,+9.419615E+01
987264,+8.476923E+01
987274,+7.187692E+01
987284,+5.691538E+01
987294,+3.951154E+01
987304,+2.096538E+01
987314,+1.969231E+00
987324,-1.646538E+01
987334,-2.993077E+01
987344,-4.013077E+01
987354,-4.741923E+01
987364,-5.046538E+01
987374,-5.155385E+01
987384,-5.145000E+01
987394,-5.094615E+01
987404,-4.986923E+01
987414,-4.725000E+01
987424,-4.482308E+01
987434,-4.273462E+01
987444,-4.045385E+01
987454,-3.926154E+01
987464,-3.914231E+01
987474,-3.903077E+01
987484,-3.806538E+01
987494,-3.691538E+01
987504,-3.648077E+01
987514,-3.808462E+01
987524,-3.901154E+01
987534,-3.918462E+01
987544,-4.007308E+01
987554,-4.050385E+01
987564,-3.921538E+01
987574,-3.684615E+01
987584,-3.548462E+01
987594,-3.590000E+01
987604,-3.584231E+01
987614,-3.436923E+01
987624,-3.288077E+01
987634,-3.113077E+01
987644,-2.825000E+01
987654,-2.436154E+01
987664,-2.072692E+01
987674,-1.810000E+01
987684,-1.592308E+01
987694,-1.479615E+01
987704,-1.463846E+01
987715,-1.546538E+01
987725,-1.628846E+01
987735,-1.672308E+01
987745,-1.903077E+01
987755,-2.321923E+01
987765,-2.594231E+01
987775,-2.928462E+01
987785,-3.513846E+01
987795,-3.861154E+01
987805,-1.388462E+01
987815,+1.905385E+01
987825,+4.101154E+01
987835,+4.222308E+01
987845,+3.283077E+01
987855,+3.023462E+01
987865,+2.827308E+01
987875,+2.791923E+01
987885,+3.147308E+01
987895,+3.526538E+01
987905,+1.151538E+01
987915,-1.929231E+01
987925,-3.905385E+01
987935,-3.901154E+01
987945,-2.742308E+01
987955,-2.115769E+01
987965,-1.686154E+01
987975,-1.266538E+01
987985,-7.900000E+00
987995,-2.323077E+00
988005,+4.050000E+00
988015,+1.066923E+01
988025,+1.823846E+01
988035,+2.745000E+01
988045,+3.805000E+01
988055,+5.038077E+01
988065,+6.179231E+01
988075,+7.196538E+01
988085,+8.005385E+01
988095,+8.417308E+01
988105,+8.491923E+01
988115,+8.218846E+01
988125,+7.503462E+01
988135,+6.463846E+01
988145,+5.153462E+01
988155,+3.575385E+01
988165,+1.923077E+01
988175,+3.242308E+00
988185,-1.166538E+01
988195,-2.302308E+01
988205,-3.186154E+01
988215,-3.901923E+01
988225,-4.369615E+01
988235,-4.570769E+01
988245,-4.635000E+01
988255,-4.702692E+01
988265,-4.671154E+01
988275,-4.569615E+01
988285,-4.424231E+01
988295,-4.275769E+01
988305,-4.138462E+01
988315,-3.933846E+01
988325,-3.655769E+01
988335,-3.494231E+01
988345,-3.421538E+01
988355,-3.277692E+01
988365,-3.150769E+01
988375,-3.058077E+01
988385,-2.946154E+01
988395,-2.854231E+01
988405,-2.818462E+01
988415,-2.825385E+01
988425,-2.803846E+01
988435,-2.732308E+01
988445,-2.586538E+01
988455,-2.486154E+01
988465,-2.411538E+01
988475,-2.388462E+01
988485,-2.388077E+01
988495,-2.350769E+01
988505,-2.238077E+01
988515,-2.013462E+01
988525,-1.688077E+01
988535,-1.313846E+01
988545,-9.665385E+00
988555,-6.976923E+00
988565,-4.892308E+00
988575,-3.911538E+00
988585,-4.980769E+00
988595,-6.923077E+00
988605,-8.592308E+00
988615,-1.093846E+01
988625,-1.518077E+01
988635,-1.929615E+01
988645,-2.280385E+01
988655,-2.713462E+01
988665,-3.310000E+01
988675,-2.711538E+01
988685,-3.400000E+00
988695,+1.993077E+01
988705,+2.463462E+01
988715,+1.658462E+01
988725,+8.700000E+00
988735,+8.992308E+00
988745,+8.765385E+00
988755,+1.035385E+01
988765,+1.568077E+01
988775,+1.014231E+01
988785,-1.185769E+01
988795,-3.253077E+01
988805,-3.419231E+01
988815,-2.337308E+01
988825,-1.188462E+01
988835,-8.823077E+00
988845,-4.873077E+00
988855,-9.115385E-01
988865,+1.834615E+00
988875,+5.984615E+00
988885,+1.155385E+01
988895,+1.771538E+01
988905,+2.391154E+01
988915,+3.187692E+01
988925,+4.078462E+01
988935,+5.045385E+01
988945,+6.037692E+01
988955,+6.952692E+01
988965,+7.701538E+01
988975,+8.091923E+01
988985,+7.884231E+01
988995,+7.374231E+01
989005,+6.583846E+01
989015,+5.355385E+01
989025,+4.041923E+01
989035,+2.560000E+01
989045,+8.453846E+00
989055,-8.784615E+00
989065,-2.333462E+01
989075,-3.422308E+01
989085,-4.012692E+01
989095,-4.510769E+01
989105,-4.791538E+01
989115,-4.748846E+01
989125,-4.728462E+01
989135,-4.690385E+01
989145,-4.555385E+01
989155,-4.361538E+01
989165,-4.240385E+01
989175,-4.191538E+01
989185,-4.161154E+01
989195,-3.873462E+01
989205,-3.535000E+01
989215,-3.290385E+01
989225,-3.198077E+01
989235,-3.274231E+01
989245,-3.281923E+01
989255,-3.160385E+01
989265,-2.981538E+01
989275,-2.904615E+01
989285,-2.815000E+01
989295,-2.812308E+01
989305,-2.943462E+01
989315,-3.103077E+01
989325,-3.165000E+01
989335,-3.009231E+01
989345,-2.796538E+01
989355,-2.652692E+01
989365,-2.605385E+01
989375,-2.532308E+01
989385,-2.500385E+01
989395,-2.512692E+01
989405,-2.334615E+01
989415,-1.779231E+01
989425,-1.176154E+01
989435,-6.684615E+00
989445,-4.130769E+00
989455,-3.230769E+00
989465,-3.630769E+00
989475,-4.800000E+00
989485,-6.723077E+00
989495,-8.557692E+00
989505,-1.119231E+01
989515,-1.682308E+01
989525,-2.179615E+01
989535,-2.613462E+01
989545,-3.105769E+01
989555,-3.634615E+01
989565,-2.745385E+01
989575,+4.576923E-01
989585,+3.586154E+01
989595,+3.836923E+01
989605,+2.882308E+01
989615,+2.099615E+01
989625,+2.143077E+01
989635,+2.158846E+01
989645,+2.397308E+01
989655,+2.845769E+01
989665,+2.049615E+01
989675,-5.388462E+00
989685,-3.757308E+01
989695,-3.663077E+01
989705,-2.396538E+01
989715,-1.277308E+01
989725,-9.946154E+00
989735,-4.888462E+00
989745,+1.038462E-01
989755,+4.723077E+00
989765,+1.039615E+01
989775,+1.653846E+01
989785,+2.323846E+01
989795,+3.070385E+01
989805,+4.058846E+01
989815,+5.076154E+01
989825,+6.076538E+01
989835,+6.961538E+01
989845,+7.915000E+01
989855,+8.717308E+01
989865,+9.060000E+01
989875,+8.762308E+01
989885,+8.260769E+01
989895,+7.479615E+01
989905,+6.261923E+01
989915,+4.877308E+01
989925,+3.407692E+01
989935,+1.781154E+01
989945,+6.846154E-01
989955,-1.481154E+01
989965,-2.695769E+01
989975,-3.243462E+01
989985,-3.588077E+01
989995,-3.883462E+01
990005,-4.031154E+01
990015,-4.019615E+01
990025,-3.944615E+01
990035,-3.735385E+01
990045,-3.441154E+01
990055,-3.178462E+01
990065,-3.007692E+01
990075,-2.905385E+01
990085,-2.835769E+01
990095,-2.703077E+01
990105,-2.551923E+01
990115,-2.373077E+01
990125,-2.166538E+01
990135,-2.115385E+01
990145,-2.148077E+01
990155,-2.092692E+01
990165,-1.931154E+01
990175,-1.758077E+01
990185,-1.599231E+01
990195,-1.505385E+01
990205,-1.449231E+01
990215,-1.451154E+01
990225,-1.470000E+01
990235,-1.340769E+01
990245,-1.214615E+01
990255,-1.191538E+01
990265,-1.137308E+01
990275,-9.853846E+00
990285,-7.569231E+00
990295,-3.650000E+00
990305,+1.380769E+00
990315,+5.923077E+00
990325,+8.896154E+00
990335,+1.000385E+01
990345,+9.861538E+00
990355,+9.861538E+00
990365,+8.638462E+00
990375,+5.200000E+00
990385,+1.076923E+00
990395,-2.673077E+00
990405,-5.892308E+00
990415,-1.006538E+01
990425,-1.686923E+01
990435,-2.207308E+01
990445,+1.950000E+00
990455,+3.274615E+01
990465,+5.270385E+01
990475,+5.406538E+01
990485,+4.407692E+01
990495,+3.945000E+01
990505,+3.785000E+01
990515,+3.896923E+01
990525,+4.386923E+01
990535,+4.841538E+01
990545,+2.501538E+01
990555,-5.580769E+00
990565,-2.413846E+01
990575,-2.192308E+01
990585,-8.142308E+00
990595,-1.923077E-01
990605,+3.976923E+00
990615,+7.323077E+00
990625,+1.133846E+01
990635,+1.565769E+01
990645,+2.040769E+01
990655,+2.683077E+01
990665,+3.565385E+01
990675,+4.403846E+01
990685,+5.229231E+01
990695,+6.278462E+01
990705,+7.416538E+01
990715,+8.483462E+01
990725,+9.308462E+01
990735,+9.690000E+01
990745,+9.843846E+01
990755,+9.686154E+01
990765,+8.710000E+01
990775,+7.496923E+01
990785,+6.158846E+01
990795,+4.495000E+01
990805,+2.636154E+01
990815,+7.450000E+00
990825,-1.015769E+01
990835,-2.356923E+01
990845,-3.498846E+01
990855,-4.444231E+01
990865,-4.895000E+01
990875,-5.077308E+01
990885,-5.170769E+01
990895,-5.218077E+01
990905,-5.203077E+01
990915,-5.172692E+01
990925,-5.056923E+01
990935,-4.833846E+01
990945,-4.546923E+01
990955,-4.321923E+01
990965,-4.151923E+01
990975,-4.104615E+01
990985,-4.058846E+01
990995,-4.035385E+01
991005,-4.050000E+01
991015,-3.980385E+01
991025,-3.843846E+01
991035,-3.821538E+01
991045,-4.001154E+01
991055,-4.080385E+01
991065,-3.961923E+01
991075,-3.767692E+01
991085,-3.650000E+01
991095,-3.543846E+01
991105,-3.371538E+01
991115,-3.243846E+01
991125,-3.222692E+01
991135,-3.184615E+01
991145,-2.983846E+01
991155,-2.706538E+01
991165,-2.341923E+01
991175,-2.003846E+01
991185,-1.650769E+01
991195,-1.468846E+01
991205,-1.410385E+01
991215,-1.452692E+01
991225,-1.584231E+01
991235,-1.701154E+01
991245,-1.811538E+01
991255,-2.026538E+01
991265,-2.340385E+01
991275,-2.698462E+01
991285,-3.288462E+01
991295,-3.920000E+01
991305,-2.314231E+01
991315,+7.219231E+00
991325,+3.584231E+01
991335,+4.769231E+01
991345,+3.893077E+01
991355,+3.477692E+01
991365,+3.420000E+01
991375,+3.405769E+01
991385,+3.566154E+01
991395,+3.935385E+01
991405,+2.263077E+01
991415,-5.561538E+00
991425,-3.121538E+01
991435,-3.996154E+01
991445,-2.735385E+01
991455,-1.898846E+01
991465,-1.515769E+01
991475,-1.132308E+01
991485,-6.238462E+00
991495,-4.423077E-01
991505,+5.392308E+00
991515,+1.173077E+01
991525,+1.897308E+01
991535,+2.665769E+01
991545,+3.439231E+01
991555,+4.484231E+01
991565,+5.561154E+01
991575,+6.608462E+01
991585,+7.545000E+01
991595,+8.099615E+01
991605,+8.335769E+01
991615,+8.106923E+01
991625,+7.352308E+01
991635,+6.338846E+01
991645,+5.083846E+01
991655,+3.478462E+01
991665,+1.776538E+01
991675,+6.269231E-01
991685,-1.601154E+01
991695,-2.942308E+01
991705,-4.009231E+01
991715,-4.762692E+01
991725,-5.021923E+01
991735,-5.054615E+01
991745,-4.943462E+01
991755,-4.791923E+01
991765,-4.698077E+01
991775,-4.622692E+01
991785,-4.499615E+01
991795,-4.303462E+01
991805,-4.075385E+01
991815,-3.950000E+01
991825,-3.955000E+01
991835,-4.046538E+01
991845,-4.105385E+01
991855,-4.100385E+01
991865,-3.966154E+01
991875,-3.825385E+01
991885,-3.675769E+01
991895,-3.528077E+01
991905,-3.470769E+01
991915,-3.528846E+01
991925,-3.516923E+01
991935,-3.405000E+01
991945,-3.303077E+01
991955,-3.296923E+01
991965,-3.339231E+01
991975,-3.315769E+01
991985,-3.239231E+01
991995,-3.197308E+01
992005,-3.122308E+01
992015,-2.775000E+01
992025,-2.358846E+01
992035,-1.887692E+01
992045,-1.298846E+01
992055,-6.830769E+00
992065,-2.892308E+00
992075,-1.576923E+00
992085,-2.084615E+00
992095,-2.430769E+00
992105,-3.207692E+00
992115,-5.007692E+00
992125,-7.634615E+00
992135,-1.121538E+01
992145,-1.524615E+01
992155,-1.892692E+01
992165,-2.507308E+01
992175,-2.213077E+01
992185,-1.707692E+00
992195,+2.588462E+01
992205,+3.504231E+01
992215,+2.824231E+01
992225,+1.891538E+01
992235,+1.971538E+01
992245,+1.916154E+01
992255,+1.760000E+01
992265,+2.190769E+01
992275,+1.945769E+01
992285,+2.115385E-01
992295,-2.643077E+01
992305,-3.295000E+01
992315,-2.312692E+01
992325,-1.060769E+01
992335,-8.573077E+00
992345,-5.653846E+00
992355,-1.534615E+00
992365,+1.588462E+00
992375,+6.553846E+00
992385,+1.378077E+01
992395,+2.230000E+01
992405,+2.967692E+01
992415,+3.726923E+01
992425,+4.583846E+01
992435,+5.575385E+01
992445,+6.638846E+01
992455,+7.638462E+01
992465,+8.534615E+01
992475,+9.034615E+01
992485,+8.692692E+01
992495,+7.968077E+01
992505,+7.050385E+01
992515,+5.917308E+01
992525,+4.681923E+01
992535,+3.298846E+01
992545,+1.692308E+01
992555,-9.230769E-02
992565,-1.587692E+01
992575,-2.905385E+01
992585,-3.527692E+01
992595,-3.893077E+01
992605,-4.114231E+01
992615,-4.181538E+01
992625,-4.244231E+01
992635,-4.295000E+01
992645,-4.245385E+01
992655,-4.030385E+01
992665,-3.798077E+01
992675,-3.623462E+01
992685,-3.526538E+01
992695,-3.471923E+01
992705,-3.363846E+01
992715,-3.266538E+01
992725,-3.204231E+01
992735,-3.177692E+01
992745,-3.154615E+01
992755,-3.174615E+01
992765,-3.240769E+01
992775,-3.259231E+01
992785,-3.203077E+01
992795,-3.083077E+01
992805,-2.998077E+01
992815,-2.943077E+01
992825,-2.863846E+01
992835,-2.724231E+01
992845,-2.553077E+01
992855,-2.382692E+01
992865,-2.227308E+01
992875,-2.066154E+01
992885,-1.890000E+01
992895,-1.667692E+01
992905,-1.395000E+01
992915,-9.176923E+00
992925,-3.596154E+00
992935,+1.823077E+00
992945,+4.607692E+00
992955,+5.703846E+00
992965,+5.546154E+00
992975,+4.253846E+00
992985,+2.623077E+00
992995,+4.538462E-01
993005,-2.800000E+00
993015,-7.311538E+00
993025,-1.173077E+01
993035,-1.785385E+01
993045,-2.611538E+01
993055,-2.025769E+01
993065,+5.188462E+00
993075,+3.859615E+01
993085,+5.996923E+01
993095,+4.949231E+01
993105,+4.128846E+01
993115,+3.890385E+01
993125,+3.819231E+01
993135,+3.901538E+01
993145,+4.409615E+01
993155,+3.705385E+01
993165,+1.327692E+01
993175,-1.741923E+01
993185,-3.650385E+01
993195,-2.282308E+01
993205,-9.930769E+00
993215,-3.226923E+00
993225,+8.153846E-01
993235,+5.592308E+00
993245,+1.093846E+01
993255,+1.661538E+01
993265,+2.289231E+01
993275,+2.969231E+01
993285,+3.759615E+01
993295,+4.556154E+01
993305,+5.475385E+01
993315,+6.463846E+01
993325,+7.543077E+01
993335,+8.607308E+01
993345,+9.358846E+01
993355,+9.811923E+01
993365,+9.834615E+01
993375,+9.266154E+01
993385,+8.337308E+01
993395,+7.125000E+01
993405,+5.668846E+01
993415,+4.126923E+01
993425,+2.404615E+01
993435,+5.707692E+00
993445,-8.984615E+00
993455,-2.090385E+01
993465,-3.062308E+01
993475,-3.531154E+01
993485,-3.662692E+01
993495,-3.575000E+01
993505,-3.431923E+01
993515,-3.278462E+01
993525,-3.066923E+01
993535,-2.857692E+01
993545,-2.813077E+01
993555,-2.787692E+01
993565,-2.694615E+01
993575,-2.555769E+01
993585,-2.506154E+01
993595,-2.625385E+01
993605,-2.773846E+01
993615,-2.887308E+01
993625,-2.901154E+01
993635,-2.785769E+01
993645,-2.562692E+01
993655,-2.353462E+01
993665,-2.321154E+01
993675,-2.359615E+01
993685,-2.356923E+01
993695,-2.207308E+01
993705,-2.069231E+01
993715,-1.966154E+01
993725,-1.873846E+01
993735,-1.768462E+01
993745,-1.679615E+01
993755,-1.510385E+01
993765,-1.129231E+01
993775,-7.057692E+00
993785,-2.369231E+00
993795,+2.365385E+00
993805,+3.930769E+00
993815,+3.888462E+00
993825,+3.123077E+00
993835,+1.988462E+00
993845,-1.038462E-01
993855,-3.280769E+00
993865,-7.634615E+00
993875,-1.131923E+01
993885,-1.427692E+01
993895,-1.782692E+01
993905,-2.189615E+01
993915,-1.837308E+01
993925,+2.576923E+00
993935,+3.366154E+01
993945,+3.771923E+01
993955,+2.826923E+01
993965,+1.835000E+01
993975,+1.335385E+01
993985,+1.195769E+01
993995,+1.138077E+01
994005,+1.458077E+01
994015,+1.145769E+01
994025,-8.130769E+00
994035,-3.722692E+01
994045,-3.810385E+01
994055,-2.514231E+01
994065,-1.121923E+01
994075,-2.319231E+00
994085,+2.219231E+00
994095,+7.023077E+00
994105,+1.235385E+01
994115,+1.864615E+01
994125,+2.566538E+01
994135,+3.276154E+01
994145,+4.071154E+01
994155,+4.998462E+01
994165,+6.058462E+01
994175,+7.148846E+01
994185,+8.273846E+01
994195,+9.233846E+01
994205,+9.925385E+01
994215,+1.031077E+02
994225,+1.033423E+02
994235,+9.742308E+01
994245,+8.698846E+01
994255,+7.278462E+01
994265,+5.622308E+01
994275,+3.847692E+01
994285,+1.918077E+01
994295,+5.576923E-01
994305,-1.485385E+01
994315,-2.780385E+01
994325,-3.871538E+01
994335,-4.435769E+01
994345,-4.652308E+01
994355,-4.671538E+01
994365,-4.670769E+01
994375,-4.585000E+01
994385,-4.349615E+01
994395,-4.059615E+01
994405,-3.931923E+01
994415,-3.964615E+01
994425,-3.970385E+01
994435,-3.965769E+01
994445,-3.945000E+01
994455,-3.843462E+01
994465,-3.677308E+01
994475,-3.630000E+01
994485,-3.749615E+01
994495,-3.891923E+01
994505,-3.976923E+01
994515,-3.873462E+01
994525,-3.740000E+01
994535,-3.625000E+01
994545,-3.628077E+01
994555,-3.711923E+01
994565,-3.751923E+01
994575,-3.714615E+01
994585,-3.572692E+01
994595,-3.250000E+01
994605,-2.921154E+01
994615,-2.704231E+01
994625,-2.481538E+01
994635,-2.143846E+01
994645,-1.682308E+01
994655,-1.180000E+01
994665,-9.423077E+00
994675,-8.826923E+00
994685,-9.311538E+00
994695,-1.219615E+01
994705,-1.552308E+01
994715,-1.815769E+01
994725,-2.094231E+01
994735,-2.392308E+01
994745,-2.712308E+01
994755,-3.178846E+01
994765,-3.707692E+01
994775,-3.022692E+01
994785,-5.938462E+00
994795,+2.656923E+01
994805,+3.038077E+01
994815,+2.198846E+01
994825,+1.381154E+01
994835,+1.057308E+01
994845,+1.031154E+01
994855,+1.141154E+01
994865,+1.529231E+01
994875,+8.723077E+00
994885,-1.387308E+01
994895,-4.317692E+01
994905,-4.311923E+01
994915,-3.186154E+01
994925,-2.076154E+01
994935,-1.432692E+01
994945,-9.003846E+00
994955,-3.615385E+00
994965,+1.407692E+00
994975,+6.353846E+00
994985,+1.308077E+01
994995,+1.975000E+01
995005,+2.625000E+01
995015,+3.538846E+01
995025,+4.580769E+01
995035,+5.597692E+01
995045,+6.338846E+01
995055,+6.951154E+01
995065,+7.543077E+01
995075,+7.971154E+01
995085,+7.886154E+01
995095,+7.120000E+01
995105,+6.198462E+01
995115,+5.030769E+01
995125,+3.528846E+01
995135,+1.856154E+01
995145,+1.700000E+00
995155,-1.380769E+01
995165,-2.733846E+01
995175,-3.913077E+01
995185,-4.830000E+01
995195,-5.062692E+01
995205,-5.125769E+01
995215,-5.126538E+01
995225,-4.972692E+01
995235,-4.815385E+01
995245,-4.627692E+01
995255,-4.412308E+01
995265,-4.233077E+01
995275,-4.101154E+01
995285,-3.980385E+01
995295,-3.961538E+01
995305,-4.003462E+01
995315,-4.020385E+01
995325,-4.008462E+01
995335,-3.925385E+01
995345,-3.815385E+01
995355,-3.654231E+01
995365,-3.503077E+01
995375,-3.411538E+01
995385,-3.381923E+01
995395,-3.362308E+01
995405,-3.266923E+01
995415,-3.155385E+01
995425,-3.072692E+01
995435,-2.981923E+01
995445,-2.858846E+01
995455,-2.810385E+01
995465,-2.893077E+01
995475,-2.927308E+01
995485,-2.736154E+01
995495,-2.384615E+01
995505,-1.945385E+01
995515,-1.478846E+01
995525,-1.123846E+01
995535,-9.507692E+00
995545,-9.400000E+00
995555,-1.016923E+01
995565,-1.040000E+01
995575,-1.005000E+01
995585,-1.142308E+01
995595,-1.591154E+01
995605,-2.132308E+01
995615,-2.641154E+01
995625,-3.320000E+01
995635,-3.845769E+01
995645,-3.406923E+01
995655,-1.321538E+01
995665,+1.134231E+01
995675,+1.793462E+01
995685,+1.097308E+01
995695,+8.961538E+00
995705,+1.006154E+01
995715,+1.060385E+01
995725,+1.446923E+01
995735,+1.928846E+01
995745,+1.573846E+01
995755,-3.173077E+00
995765,-2.530769E+01
995775,-3.010000E+01
995785,-2.107308E+01
995795,-1.458077E+01
995805,-1.126538E+01
995815,-8.765385E+00
995825,-6.292308E+00
995835,-3.523077E+00
995845,+1.473077E+00
995855,+6.946154E+00
995865,+1.257692E+01
995875,+2.100000E+01
995885,+3.110385E+01
995895,+4.163846E+01
995905,+5.230000E+01
995915,+6.373462E+01
995925,+7.493077E+01
995935,+8.416538E+01
995945,+8.587692E+01
995955,+8.372308E+01
995965,+7.840000E+01
995975,+6.917308E+01
995985,+5.646538E+01
995995,+4.180769E+01
996005,+2.602308E+01
996015,+9.269231E+00
996025,-7.365385E+00
996035,-2.255385E+01
996045,-3.214615E+01
996055,-3.902308E+01
996065,-4.343077E+01
996075,-4.604615E+01
996085,-4.631923E+01
996095,-4.500385E+01
996105,-4.315769E+01
996115,-4.042692E+01
996125,-3.686538E+01
996135,-3.438462E+01
996145,-3.301923E+01
996155,-3.126923E+01
996165,-2.886923E+01
996175,-2.741154E+01
996185,-2.669231E+01
996195,-2.701538E+01
996205,-2.784615E+01
996215,-2.875385E+01
996225,-2.970769E+01
996235,-2.971538E+01
996245,-2.983077E+01
996255,-3.083462E+01
996265,-3.226923E+01
996275,-3.258846E+01
996285,-3.242692E+01
996295,-3.215769E+01
996305,-3.148077E+01
996315,-3.082692E+01
996325,-3.078846E+01
996335,-3.045385E+01
996345,-2.878462E+01
996355,-2.667692E+01
996365,-2.458846E+01
996375,-1.954231E+01
996385,-1.349231E+01
996395,-7.407692E+00
996405,-2.184615E+00
996415,-8.038462E-01
996425,-1.157692E+00
996435,-2.669231E+00
996445,-3.388462E+00
996455,-3.311538E+00
996465,-3.846154E+00
996475,-8.734615E+00
996485,-1.493077E+01
996495,-2.036923E+01
996505,-2.599615E+01
996515,-3.070000E+01
996525,-2.355000E+01
996535,+1.053846E+00
996545,+3.299231E+01
996555,+3.633462E+01
996565,+2.738462E+01
996575,+1.975385E+01
996585,+1.850769E+01
996595,+1.955000E+01
996605,+2.117308E+01
996615,+2.535385E+01
996625,+1.952692E+01
996635,-2.888462E+00
996645,-3.342692E+01
996655,-3.556923E+01
996665,-2.439231E+01
996675,-1.313462E+01
996685,-7.834615E+00
996695,-4.534615E+00
996705,-3.846154E-02
996715,+5.461538E+00
996725,+1.118846E+01
996735,+1.738077E+01
996745,+2.419615E+01
996755,+3.218462E+01
996765,+4.193077E+01
996775,+5.250000E+01
996785,+6.400769E+01
996795,+7.535385E+01
996805,+8.511923E+01
996815,+9.246923E+01
996825,+9.686154E+01
996835,+9.764231E+01
996845,+9.205385E+01
996855,+8.315000E+01
996865,+7.053077E+01
996875,+5.562308E+01
996885,+3.930769E+01
996895,+2.243846E+01
996905,+6.765385E+00
996915,-7.746154E+00
996925,-1.974615E+01
996935,-2.853462E+01
996945,-3.122692E+01
996955,-3.187692E+01
996965,-3.152692E+01
996975,-3.046923E+01
996985,-2.879231E+01
996995,-2.756923E+01
997005,-2.708077E+01
997015,-2.598462E+01
997025,-2.477692E+01
997035,-2.387692E+01
997045,-2.394615E+01
997055,-2.377308E+01
997065,-2.315000E+01
997075,-2.224615E+01
997085,-2.208846E+01
997095,-2.127308E+01
997105,-1.932308E+01
997115,-1.809231E+01
997125,-1.910000E+01
997135,-1.983846E+01
997145,-1.970385E+01
997155,-1.960000E+01
997165,-1.935385E+01
997175,-1.936923E+01
997185,-1.962692E+01
997195,-1.884615E+01
997205,-1.745000E+01
997215,-1.527308E+01
997225,-1.193846E+01
997235,-9.269231E+00
997245,-6.326923E+00
997255,-3.100000E+00
997265,-1.038462E-01
997275,+3.523077E+00
997285,+8.200000E+00
997295,+1.160769E+01
997305,+1.251538E+01
997315,+1.192308E+01
997325,+1.074615E+01
997335,+9.292308E+00
997345,+7.496154E+00
997355,+5.973077E+00
997365,+5.123077E+00
997375,+2.492308E+00
997385,-1.800000E+00
997395,-5.946154E+00
997405,-7.996154E+00
997415,-1.373077E+01
997425,-1.491923E+01
997435,-9.153846E-01
997445,+2.856538E+01
997455,+4.031538E+01
997465,+3.221923E+01
997475,+1.885769E+01
997485,+1.682692E+01
997495,+1.567308E+01
997505,+1.392692E+01
997515,+1.923846E+01
997525,+2.183846E+01
997535,+9.980769E+00
997545,-1.787692E+01
997555,-2.876923E+01
997565,-2.007692E+01
997575,-3.938462E+00
997585,+1.330769E+00
997595,+5.500000E+00
997605,+1.053462E+01
997615,+1.450385E+01
997625,+1.854615E+01
997635,+2.351538E+01
997645,+2.988462E+01
997655,+3.705000E+01
997665,+4.539231E+01
997675,+5.417308E+01
997685,+6.491154E+01
997695,+7.715769E+01
997705,+8.780000E+01
997715,+9.620769E+01
997725,+1.024731E+02
997735,+1.024538E+02
997745,+9.761154E+01
997755,+8.950000E+01
997765,+7.763846E+01
997775,+6.304615E+01
997785,+4.575000E+01
997795,+2.628846E+01
997805,+7.457692E+00
997815,-1.022308E+01
997825,-2.633462E+01
997835,-3.663846E+01
997845,-4.319231E+01
997855,-4.734231E+01
997865,-4.975000E+01
997875,-5.079231E+01
997885,-4.989231E+01
997895,-4.772308E+01
997905,-4.494231E+01
997915,-4.274231E+01
997925,-4.088077E+01
997935,-3.932692E+01
997945,-3.767692E+01
997955,-3.664231E+01
997965,-3.553462E+01
997975,-3.404231E+01
997985,-3.280000E+01
997995,-3.295000E+01
998005,-3.404615E+01
998015,-3.436923E+01
998025,-3.450000E+01
998035,-3.505000E+01
998045,-3.566154E+01
998055,-3.438462E+01
998065,-3.355769E+01
998075,-3.413846E+01
998085,-3.449615E+01
998095,-3.318846E+01
998105,-3.127692E+01
998115,-2.935769E+01
998125,-2.568462E+01
998135,-2.089231E+01
998145,-1.560769E+01
998155,-1.092308E+01
998165,-5.800000E+00
998175,-8.615385E-01
998185,+1.811538E+00
998195,+4.038462E-01
998205,-1.592308E+00
998215,-3.261538E+00
998225,-6.107692E+00
998235,-1.038462E+01
998245,-1.607692E+01
998255,-2.230769E+01
998265,-2.838462E+01
998275,-3.573462E+01
998285,-4.084231E+01
998295,-3.224615E+01
998305,+2.307692E-01
998315,+2.157692E+01
998325,+2.340385E+01
998335,+1.533846E+01
998345,+1.334231E+01
998355,+1.371923E+01
998365,+1.438846E+01
998375,+1.953462E+01
998385,+2.461154E+01
998395,+1.863846E+01
998405,-1.148077E+01
998415,-3.115385E+01
998425,-3.186154E+01
998435,-2.196538E+01
998445,-1.508846E+01
998455,-9.953846E+00
998465,-4.938462E+00
998475,-2.030769E+00
998485,+1.665385E+00
998495,+7.023077E+00
998505,+1.395385E+01
998515,+2.251154E+01
998525,+3.203462E+01
998535,+4.218846E+01
998545,+5.083462E+01
998555,+6.043077E+01
998565,+6.993462E+01
998575,+7.874615E+01
998585,+8.337308E+01
998595,+8.435000E+01
998605,+8.137692E+01
998615,+7.440769E+01
998625,+6.277308E+01
998635,+4.904615E+01
998645,+3.377308E+01
998655,+1.661923E+01
998665,-2.384615E-01
998675,-1.645385E+01
998685,-2.978077E+01
998695,-4.018077E+01
998705,-4.720000E+01
998715,-5.121923E+01
998725,-5.095769E+01
998735,-4.930000E+01
998745,-4.711538E+01
998755,-4.495385E+01
998765,-4.342692E+01
998775,-4.120385E+01
998785,-3.847692E+01
998795,-3.586538E+01
998805,-3.318462E+01
998815,-3.135000E+01
998825,-3.055769E+01
998835,-3.033462E+01
998845,-2.998462E+01
998855,-2.951154E+01
998865,-2.862308E+01
998875,-2.862308E+01
998885,-2.948846E+01
998895,-3.028846E+01
998905,-3.084615E+01
998915,-3.161538E+01
998925,-3.164615E+01
998935,-3.057308E+01
998945,-2.890769E+01
998955,-2.771538E+01
998965,-2.733462E+01
998975,-2.705000E+01
998985,-2.518846E+01
998995,-2.340385E+01
999005,-2.226538E+01
999015,-1.825385E+01
999025,-1.305385E+01
999035,-8.780769E+00
999045,-6.530769E+00
999055,-5.480769E+00
999065,-4.376923E+00
999075,-3.473077E+00
999085,-4.600000E+00
999095,-6.376923E+00
999105,-8.542308E+00
999115,-1.356154E+01
999125,-1.959615E+01
999135,-2.417692E+01
999145,-2.754231E+01
999155,-3.204231E+01
999165,-3.219231E+01
999175,-1.651923E+01
999185,+1.263846E+01
999195,+2.425000E+01
999205,+2.147692E+01
999215,+1.536923E+01
999225,+1.273846E+01
999235,+1.249615E+01
999245,+1.231923E+01
999255,+1.546923E+01
999265,+1.569615E+01
999275,+6.576923E-01
999285,-2.735385E+01
999295,-3.740385E+01
999305,-3.128077E+01
999315,-2.100769E+01
999325,-1.448077E+01
999335,-1.040000E+01
999345,-5.734615E+00
999355,-8.576923E-01
999365,+4.353846E+00
999375,+1.100769E+01
999385,+1.798846E+01
999395,+2.504615E+01
999405,+3.219615E+01
999415,+4.263077E+01
999425,+5.321538E+01
999435,+6.250000E+01
999445,+7.223846E+01
999455,+7.986154E+01
999465,+8.351154E+01
999475,+8.276538E+01
999485,+7.772692E+01
999495,+7.018846E+01
999505,+5.947308E+01
999515,+4.458462E+01
999525,+2.952692E+01
999535,+1.436154E+01
999545,-1.919231E+00
999555,-1.662308E+01
999565,-2.791538E+01
999575,-3.551923E+01
999585,-3.947308E+01
999595,-4.210385E+01
999605,-4.366154E+01
999615,-4.438846E+01
999625,-4.380385E+01
999635,-4.275385E+01
999645,-4.148846E+01
999655,-4.084231E+01
999665,-4.138846E+01
999675,-4.255000E+01
999685,-4.294615E+01
999695,-4.256923E+01
999705,-4.159615E+01
999715,-4.037308E+01
999725,-3.991538E+01
999735,-3.992308E+01
999745,-4.047308E+01
999755,-4.089231E+01
999765,-3.934231E+01
999775,-3.793462E+01
999785,-3.713846E+01
999795,-3.636538E+01
999805,-3.498846E+01
999815,-3.400000E+01
999825,-3.378462E+01
999835,-3.393462E+01
999845,-3.346538E+01
999855,-3.211538E+01
999865,-3.180769E+01
999875,-3.135000E+01
999885,-2.926538E+01
999895,-2.616538E+01
999905,-2.299231E+01
999915,-1.816154E+01
999925,-1.255000E+01
999935,-7.096154E+00
999945,-4.415385E+00
999955,-3.065385E+00
999965,-2.823077E+00
999975,-3.419231E+00
999985,-5.100000E+00
999995,-6.969231E+00
1000005,-9.300000E+00
1000015,-1.447692E+01
1000025,-1.948462E+01
1000035,-2.375000E+01
1000045,-2.730769E+01
1000055,-2.498077E+01
1000065,-5.780769E+00
1000075,+2.699231E+01
1000085,+3.856154E+01
1000095,+3.358846E+01
1000105,+2.431154E+01
1000115,+2.084231E+01
1000125,+2.206923E+01
1000135,+2.308846E+01
1000145,+2.600385E+01
1000155,+2.316154E+01
1000165,+5.069231E+00
1000175,-2.464615E+01
1000185,-3.245385E+01
1000195,-2.633462E+01
1000205,-1.644615E+01
1000215,-1.007692E+01
1000225,-7.692308E+00
1000235,-4.669231E+00
1000245,-1.661538E+00
1000255,+2.461538E+00
1000265,+8.200000E+00
1000275,+1.402692E+01
1000285,+2.006923E+01
1000295,+2.875769E+01
1000305,+4.003077E+01
1000315,+5.214615E+01
1000325,+6.440769E+01
1000335,+7.492308E+01
1000345,+8.319615E+01
1000355,+8.836923E+01
1000365,+8.871923E+01
1000375,+8.426923E+01
1000385,+7.765000E+01
1000395,+6.880385E+01
1000405,+5.616154E+01
1000415,+3.952308E+01
1000425,+2.132692E+01
1000435,+4.523077E+00
1000445,-9.423077E+00
1000455,-2.055769E+01
1000465,-2.918462E+01
1000475,-3.447308E+01
1000485,-3.818077E+01
1000495,-3.965385E+01
1000505,-3.916538E+01
1000515,-3.698846E+01
1000525,-3.529615E+01
1000535,-3.417692E+01
1000545,-3.374615E+01
1000555,-3.323846E+01
1000565,-3.255000E+01
1000575,-3.157308E+01
1000585,-3.068077E+01
1000595,-3.031154E+01
1000605,-3.034231E+01
1000615,-3.007308E+01
1000625,-2.950000E+01
1000635,-2.840769E+01
1000645,-2.721923E+01
1000655,-2.677308E+01
1000665,-2.655769E+01
1000675,-2.600000E+01
1000685,-2.556923E+01
1000695,-2.578846E+01
1000705,-2.595000E+01
1000715,-2.559231E+01
1000725,-2.411923E+01
1000735,-2.181154E+01
1000745,-1.991923E+01
1000755,-1.832692E+01
1000765,-1.507692E+01
1000775,-1.049231E+01
1000785,-5.130769E+00
1000795,+9.307692E-01
1000805,+5.511538E+00
1000815,+7.761538E+00
1000825,+7.750000E+00
1000835,+7.192308E+00
1000845,+6.907692E+00
1000855,+6.603846E+00
1000865,+4.350000E+00
1000875,-6.923077E-02
1000885,-5.188462E+00
1000895,-9.423077E+00
1000905,-1.150000E+01
1000915,-1.796923E+01
1000925,-1.904231E+01
1000935,-4.115385E+00
1000945,+2.767692E+01
1000955,+4.248846E+01
1000965,+3.869615E+01
1000975,+2.900000E+01
1000985,+2.801538E+01
1000995,+2.685385E+01
1001005,+2.504615E+01
1001015,+3.030769E+01
1001025,+3.176154E+01
1001035,+1.686154E+01
1001045,-1.531154E+01
1001055,-2.892692E+01
1001065,-2.220769E+01
1001075,-8.169231E+00
1001085,-3.315385E+00
1001095,+9.576923E-01
1001105,+5.907692E+00
1001115,+1.056154E+01
1001125,+1.573846E+01
1001135,+2.184615E+01
1001145,+2.956154E+01
1001155,+3.731923E+01
1001165,+4.607692E+01
1001175,+5.518462E+01
1001185,+6.569231E+01
1001195,+7.730769E+01
1001205,+8.780385E+01
1001215,+9.638077E+01
1001225,+1.017808E+02
1001235,+9.986538E+01
1001245,+9.490769E+01
1001255,+8.751154E+01
1001265,+7.424231E+01
1001275,+5.866538E+01
1001285,+4.163077E+01
1001295,+2.275769E+01
1001305,+4.519231E+00
1001315,-1.147308E+01
1001325,-2.486538E+01
1001335,-3.327692E+01
1001345,-3.959231E+01
1001355,-4.313462E+01
1001365,-4.192308E+01
1001375,-4.051923E+01
1001385,-3.972692E+01
1001395,-3.871923E+01
1001405,-3.705385E+01
1001415,-3.533462E+01
1001425,-3.419615E+01
1001435,-3.223077E+01
1001445,-3.010769E+01
1001455,-2.941923E+01
1001465,-3.064615E+01
1001475,-3.150385E+01
1001485,-3.110769E+01
1001495,-3.055385E+01
1001505,-3.070385E+01
1001515,-3.137308E+01
1001525,-3.208846E+01
1001535,-3.241538E+01
1001545,-3.250769E+01
1001555,-3.226538E+01
1001565,-3.148462E+01
1001575,-2.993462E+01
1001585,-2.827692E+01
1001595,-2.686154E+01
1001605,-2.560385E+01
1001615,-2.420769E+01
1001625,-2.033077E+01
1001635,-1.513846E+01
1001645,-9.611538E+00
1001655,-4.723077E+00
1001665,-2.657692E+00
1001675,-2.511538E+00
1001685,-3.765385E+00
1001695,-4.634615E+00
1001705,-5.430769E+00
1001715,-7.007692E+00
1001725,-1.116538E+01
1001735,-1.678846E+01
1001745,-2.227692E+01
1001755,-2.725769E+01
1001765,-3.322308E+01
1001775,-3.036923E+01
1001785,-1.038462E+01
1001795,+2.028077E+01
1001805,+2.536923E+01
1001815,+1.579615E+01
1001825,+4.915385E+00
1001835,+5.019231E+00
1001845,+5.492308E+00
1001855,+6.369231E+00
1001865,+1.117308E+01
1001875,+9.119231E+00
1001885,-8.565385E+00
1001895,-3.709231E+01
1001905,-4.010000E+01
1001915,-2.803846E+01
1001925,-1.371538E+01
1001935,-9.750000E+00
1001945,-6.269231E+00
1001955,-2.961538E+00
1001965,+9.653846E-01
1001975,+5.392308E+00
1001985,+1.136154E+01
1001995,+1.833077E+01
1002005,+2.641923E+01
1002015,+3.626538E+01
1002025,+4.655385E+01
1002035,+5.774615E+01
1002045,+6.929615E+01
1002055,+7.994231E+01
1002065,+8.806538E+01
1002075,+9.275769E+01
1002085,+9.086538E+01
1002095,+8.567692E+01
1002105,+7.691154E+01
1002115,+6.432692E+01
1002125,+4.892692E+01
1002135,+3.195769E+01
1002145,+1.399615E+01
1002155,-3.138462E+00
1002165,-1.789615E+01
1002175,-2.988077E+01
1002185,-3.706154E+01
1002195,-4.212692E+01
1002205,-4.473077E+01
1002215,-4.523077E+01
1002225,-4.360769E+01
1002235,-4.168077E+01
1002245,-4.032692E+01
1002255,-3.978462E+01
1002265,-3.925385E+01
1002275,-3.830000E+01
1002285,-3.749231E+01
1002295,-3.703462E+01
1002305,-3.684615E+01
1002315,-3.660769E+01
1002325,-3.629231E+01
1002335,-3.559615E+01
1002345,-3.490385E+01
1002355,-3.412308E+01
1002365,-3.407692E+01
1002375,-3.445769E+01
1002385,-3.451923E+01
1002395,-3.358077E+01
1002405,-3.178846E+01
1002415,-3.124615E+01
1002425,-3.148846E+01
1002435,-3.236923E+01
1002445,-3.166538E+01
1002455,-2.970000E+01
1002465,-2.737692E+01
1002475,-2.577308E+01
1002485,-2.290000E+01
1002495,-1.886538E+01
1002505,-1.471923E+01
1002515,-1.068462E+01
1002525,-7.423077E+00
1002535,-5.373077E+00
1002545,-5.569231E+00
1002555,-7.511538E+00
1002565,-9.742308E+00
1002575,-1.155385E+01
1002585,-1.443846E+01
1002595,-1.873846E+01
1002605,-2.339615E+01
1002615,-2.732308E+01
1002625,-3.400000E+01
1002635,-3.663846E+01
1002645,-2.622308E+01
1002655,+1.923077E-02
1002665,+1.893077E+01
1002675,+2.085769E+01
1002685,+1.334615E+01
1002695,+1.225000E+01
1002705,+1.258846E+01
1002715,+1.306154E+01
1002725,+1.792692E+01
1002735,+1.993462E+01
1002745,+9.861538E+00
1002755,-1.518846E+01
1002765,-3.134231E+01
1002775,-2.955385E+01
1002785,-1.874231E+01
1002795,-1.467308E+01
1002805,-1.115385E+01
1002815,-7.042308E+00
1002825,-2.934615E+00
1002835,+3.076923E+00
1002845,+9.826923E+00
1002855,+1.696923E+01
1002865,+2.319231E+01
1002875,+3.061923E+01
1002885,+3.891538E+01
1002895,+4.818846E+01
1002905,+5.716538E+01
1002915,+6.650000E+01
1002925,+7.511923E+01
1002935,+8.053077E+01
1002945,+8.000769E+01
1002955,+7.650000E+01
1002965,+7.031923E+01
1002975,+6.024231E+01
1002985,+4.741538E+01
1002995,+3.357308E+01
1003005,+1.890000E+01
1003015,+3.384615E+00
1003025,-1.205385E+01
1003035,-2.643462E+01
1003045,-3.611154E+01
1003055,-4.264615E+01
1003065,-4.630769E+01
1003075,-4.779615E+01
1003085,-4.826923E+01
1003095,-4.834231E+01
1003105,-4.763846E+01
1003115,-4.652308E+01
1003125,-4.602692E+01
1003135,-4.511538E+01
1003145,-4.334615E+01
1003155,-4.201923E+01
1003165,-4.116154E+01
1003175,-4.034615E+01
1003185,-3.874615E+01
1003195,-3.676923E+01
1003205,-3.566538E+01
1003215,-3.529615E+01
1003225,-3.426923E+01
1003235,-3.326154E+01
1003245,-3.232308E+01
1003255,-3.135385E+01
1003265,-3.048462E+01
1003275,-2.994615E+01
1003285,-2.973846E+01
1003295,-3.056154E+01
1003305,-3.086538E+01
1003315,-3.027692E+01
1003325,-2.932308E+01
1003335,-2.892692E+01
1003345,-2.842692E+01
1003355,-2.673077E+01
1003365,-2.356923E+01
1003375,-1.930000E+01
1003385,-1.486923E+01
1003395,-1.011538E+01
1003405,-5.692308E+00
1003415,-3.384615E+00
1003425,-2.469231E+00
1003435,-1.907692E+00
1003445,-2.176923E+00
1003455,-3.730769E+00
1003465,-6.592308E+00
1003475,-1.025769E+01
1003485,-1.450000E+01
1003495,-1.853462E+01
1003505,-2.246154E+01
1003515,-2.863077E+01
1003525,-3.184615E+01
1003535,-2.176154E+01
1003545,+5.657692E+00
1003555,+2.701538E+01
1003565,+2.945769E+01
1003575,+2.110769E+01
1003585,+1.942692E+01
1003595,+1.971538E+01
1003605,+1.929615E+01
1003615,+2.250000E+01
1003625,+2.498846E+01
1003635,+1.629231E+01
1003645,-8.888462E+00
1003655,-2.848462E+01
1003665,-2.948077E+01
1003675,-1.946923E+01
1003685,-1.489615E+01
1003695,-1.155769E+01
1003705,-7.803846E+00
1003715,-3.350000E+00
1003725,+1.511538E+00
1003735,+6.734615E+00
1003745,+1.200000E+01
1003755,+1.912308E+01
1003765,+2.967692E+01
1003775,+3.969231E+01
1003785,+4.936923E+01
1003795,+5.942692E+01
1003805,+7.131923E+01
1003815,+8.129615E+01
1003825,+8.744615E+01
1003835,+8.669615E+01
1003845,+8.338846E+01
1003855,+7.697308E+01
1003865,+6.581538E+01
1003875,+5.280000E+01
1003885,+3.948077E+01
1003895,+2.466154E+01
1003905,+7.646154E+00
1003915,-8.403846E+00
1003925,-2.166154E+01
1003935,-2.955000E+01
1003945,-3.553077E+01
1003955,-3.945000E+01
1003965,-4.143846E+01
1003975,-4.135385E+01
1003985,-4.173846E+01
1003995,-4.240000E+01
1004005,-4.262308E+01
1004015,-4.193846E+01
1004025,-4.138462E+01
1004035,-4.012308E+01
1004045,-3.782692E+01
1004055,-3.596154E+01
1004065,-3.481538E+01
1004075,-3.370769E+01
1004085,-3.162692E+01
1004095,-2.950000E+01
1004105,-2.818846E+01
1004115,-2.743846E+01
1004125,-2.648846E+01
1004135,-2.654615E+01
1004145,-2.718462E+01
1004155,-2.740385E+01
1004165,-2.693077E+01
1004175,-2.613846E+01
1004185,-2.518846E+01
1004195,-2.475385E+01
1004205,-2.415000E+01
1004215,-2.323462E+01
1004225,-2.233462E+01
1004235,-2.056538E+01
1004245,-1.896923E+01
1004255,-1.820769E+01
1004265,-1.787308E+01
1004275,-1.708462E+01
1004285,-1.627692E+01
1004295,-1.448077E+01
1004305,-1.030385E+01
1004315,-5.011538E+00
1004325,+7.423077E-01
1004335,+5.203846E+00
1004345,+8.376923E+00
1004355,+1.067308E+01
1004365,+1.167308E+01
1004375,+1.096538E+01
1004385,+1.019615E+01
1004395,+9.500000E+00
1004405,+6.292308E+00
1004415,+3.384615E-01
1004425,-6.069231E+00
1004435,-1.101154E+01
1004445,-1.510769E+01
1004455,-2.036538E+01
1004465,-2.509231E+01
1004475,-2.050769E+01
1004485,+1.376154E+01
1004495,+4.207308E+01
1004505,+5.153462E+01
1004515,+4.362308E+01
1004525,+4.073462E+01
1004535,+4.094615E+01
1004545,+4.191538E+01
1004555,+4.604231E+01
1004565,+5.126538E+01
1004575,+4.820385E+01
1004585,+1.512692E+01
1004595,-1.168462E+01
1004605,-1.897692E+01
1004615,-7.676923E+00
1004625,-1.419231E+00
1004635,+1.838462E+00
1004645,+5.550000E+00
1004655,+8.992308E+00
1004665,+1.344615E+01
1004675,+1.830000E+01
1004685,+2.388462E+01
1004695,+3.130385E+01
1004705,+3.953462E+01
1004715,+4.876923E+01
1004725,+5.896923E+01
1004735,+7.069615E+01
1004745,+8.180769E+01
1004755,+9.189615E+01
1004765,+9.706538E+01
1004775,+9.922308E+01
1004785,+9.819615E+01
1004795,+9.278462E+01
1004805,+8.273846E+01
1004815,+7.008462E+01
1004825,+5.512308E+01
1004835,+3.777308E+01
1004845,+2.016923E+01
1004855,+3.107692E+00
1004865,-1.035385E+01
1004875,-2.156923E+01
1004885,-3.064231E+01
1004895,-3.742692E+01
1004905,-3.984231E+01
1004915,-4.054231E+01
1004925,-3.964615E+01
1004935,-3.788846E+01
1004945,-3.612692E+01
1004955,-3.448846E+01
1004965,-3.269615E+01
1004975,-3.047308E+01
1004985,-2.805385E+01
1004995,-2.662308E+01
1005005,-2.645385E+01
1005015,-2.559231E+01
1005025,-2.467308E+01
1005035,-2.472692E+01
1005045,-2.523846E+01
1005055,-2.511538E+01
1005065,-2.490385E+01
1005075,-2.518462E+01
1005085,-2.615769E+01
1005095,-2.606538E+01
1005105,-2.494231E+01
1005115,-2.469615E+01
1005125,-2.593462E+01
1005135,-2.675769E+01
1005145,-2.616154E+01
1005155,-2.527308E+01
1005165,-2.446538E+01
1005175,-2.365000E+01
1005185,-2.180000E+01
1005195,-1.791154E+01
1005205,-1.365385E+01
1005215,-8.926923E+00
1005225,-3.450000E+00
1005235,-6.615385E-01
1005245,+4.961538E-01
1005255,+7.115385E-01
1005265,+2.307692E-02
1005275,-8.076923E-01
1005285,-2.030769E+00
1005295,-5.638462E+00
1005305,-1.050000E+01
1005315,-1.518077E+01
1005325,-1.916538E+01
1005335,-2.494615E+01
1005345,-2.887692E+01
1005355,-2.039231E+01
1005365,+5.661538E+00
1005375,+2.453846E+01
1005385,+2.333077E+01
1005395,+1.125385E+01
1005405,+2.076923E+00
1005415,+2.153846E+00
1005425,+2.026923E+00
1005435,+6.073077E+00
1005445,+1.031923E+01
1005455,+2.988462E+00
1005465,-2.153846E+01
1005475,-3.897308E+01
1005485,-3.596538E+01
1005495,-2.169231E+01
1005505,-8.861538E+00
1005515,-3.550000E+00
1005525,+1.184615E+00
1005535,+5.450000E+00
1005545,+8.700000E+00
1005555,+1.382308E+01
1005565,+2.101538E+01
1005575,+2.984615E+01
1005585,+3.941154E+01
1005595,+4.995769E+01
1005605,+6.118077E+01
1005615,+7.115769E+01
1005625,+8.146538E+01
1005635,+9.179231E+01
1005645,+1.003269E+02
1005655,+1.036308E+02
1005665,+9.901923E+01
1005675,+9.044231E+01
1005685,+7.900385E+01
1005695,+6.423077E+01
1005705,+4.675000E+01
1005715,+2.780385E+01
1005725,+9.196154E+00
1005735,-8.165385E+00
1005745,-2.421154E+01
1005755,-3.771923E+01
1005765,-4.510000E+01
1005775,-4.985769E+01
1005785,-5.260769E+01
1005795,-5.296538E+01
1005805,-5.158462E+01
1005815,-4.953077E+01
1005825,-4.804615E+01
1005835,-4.766154E+01
1005845,-4.677692E+01
1005855,-4.516154E+01
1005865,-4.326538E+01
1005875,-4.158077E+01
1005885,-4.020000E+01
1005895,-3.930769E+01
1005905,-3.874231E+01
1005915,-3.830769E+01
1005925,-3.763077E+01
1005935,-3.648077E+01
1005945,-3.618846E+01
1005955,-3.640385E+01
1005965,-3.634615E+01
1005975,-3.565769E+01
1005985,-3.533077E+01
1005995,-3.497692E+01
1006005,-3.459231E+01
1006015,-3.471923E+01
1006025,-3.530000E+01
1006035,-3.535385E+01
1006045,-3.344615E+01
1006055,-3.088077E+01
1006065,-2.885000E+01
1006075,-2.653462E+01
1006085,-2.181154E+01
1006095,-1.664231E+01
1006105,-1.195769E+01
1006115,-7.403846E+00
1006125,-5.076923E+00
1006135,-4.461538E+00
1006145,-5.384615E+00
1006155,-6.661538E+00
1006165,-7.646154E+00
1006175,-1.012308E+01
1006185,-1.507692E+01
1006195,-1.890000E+01
1006205,-2.320000E+01
1006215,-2.978462E+01
1006225,-3.434231E+01
1006235,-1.167692E+01
1006245,+2.081154E+01
1006255,+4.460000E+01
1006265,+3.590769E+01
1006275,+2.788462E+01
1006285,+2.606154E+01
1006295,+2.554231E+01
1006305,+2.547692E+01
1006315,+2.908077E+01
1006325,+3.373846E+01
1006335,+1.198846E+01
1006345,-1.956538E+01
1006355,-4.241154E+01
1006365,-3.259615E+01
1006375,-2.107692E+01
1006385,-1.433462E+01
1006395,-1.000769E+01
1006405,-5.088462E+00
1006415,-6.153846E-01
1006425,+3.826923E+00
1006435,+9.253846E+00
1006445,+1.671538E+01
1006455,+2.470769E+01
1006465,+3.349615E+01
1006475,+4.196538E+01
1006485,+5.115000E+01
1006495,+6.042692E+01
1006505,+6.961923E+01
1006515,+7.642692E+01
1006525,+8.038462E+01
1006535,+8.082308E+01
1006545,+7.656538E+01
1006555,+6.719231E+01
1006565,+5.570000E+01
1006575,+4.240385E+01
1006585,+2.657692E+01
1006595,+1.006154E+01
1006605,-6.707692E+00
1006615,-2.139615E+01
1006625,-3.353077E+01
1006635,-4.263077E+01
1006645,-4.864615E+01
1006655,-5.056538E+01
1006665,-5.146154E+01
1006675,-5.165000E+01
1006685,-5.065769E+01
1006695,-4.902692E+01
1006705,-4.729615E+01
1006715,-4.536923E+01
1006725,-4.310000E+01
1006735,-4.078846E+01
1006745,-3.901923E+01
1006755,-3.762308E+01
1006765,-3.604615E+01
1006775,-3.410000E+01
1006785,-3.255000E+01
1006795,-3.200769E+01
1006805,-3.118077E+01
1006815,-3.010385E+01
1006825,-2.945769E+01
1006835,-2.883077E+01
1006845,-2.781923E+01
1006855,-2.685000E+01
1006865,-2.711154E+01
1006875,-2.828846E+01
1006885,-2.882308E+01
1006895,-2.848462E+01
1006905,-2.814615E+01
1006915,-2.812308E+01
1006925,-2.797308E+01
1006935,-2.780000E+01
1006945,-2.709615E+01
1006955,-2.563462E+01
1006965,-2.284231E+01
1006975,-1.916538E+01
1006985,-1.407308E+01
1006995,-8.723077E+00
1007005,-3.796154E+00
1007015,-1.092308E+00
1007025,+2.000000E-01
1007035,+8.846154E-02
1007045,-1.500000E+00
1007055,-3.888462E+00
1007065,-6.046154E+00
1007075,-8.011538E+00
1007085,-1.225769E+01
1007095,-1.709231E+01
1007105,-2.268462E+01
1007115,-2.860769E+01
1007125,-2.440385E+01
1007135,-2.861538E+00
1007145,+2.928462E+01
1007155,+5.455769E+01
1007165,+4.785000E+01
1007175,+3.925000E+01
1007185,+3.632692E+01
1007195,+3.739231E+01
1007205,+3.906538E+01
1007215,+4.319231E+01
1007225,+3.842308E+01
1007235,+1.695769E+01
1007245,-1.388846E+01
1007255,-3.620385E+01
1007265,-2.583846E+01
1007275,-1.463077E+01
1007285,-9.038462E+00
1007295,-7.503846E+00
1007305,-5.096154E+00
1007315,-1.800000E+00
1007325,+2.700000E+00
1007335,+9.257692E+00
1007345,+1.637692E+01
1007355,+2.397308E+01
1007365,+3.173846E+01
1007375,+4.122308E+01
1007385,+5.179231E+01
1007395,+6.331154E+01
1007405,+7.477308E+01
1007415,+8.369615E+01
1007425,+8.932308E+01
1007435,+9.053077E+01
1007445,+8.562308E+01
1007455,+7.726923E+01
1007465,+6.563077E+01
1007475,+5.098077E+01
1007485,+3.543462E+01
1007495,+1.957308E+01
1007505,+2.938462E+00
1007515,-1.288846E+01
1007525,-2.634231E+01
1007535,-3.676538E+01
1007545,-4.163077E+01
1007555,-4.402692E+01
1007565,-4.451538E+01
1007575,-4.335000E+01
1007585,-4.258462E+01
1007595,-4.262692E+01
1007605,-4.253077E+01
1007615,-4.147308E+01
1007625,-4.103462E+01
1007635,-4.061154E+01
1007645,-3.977692E+01
1007655,-3.940385E+01
1007665,-3.995769E+01
1007675,-4.045769E+01
1007685,-3.975385E+01
1007695,-3.822308E+01
1007705,-3.726923E+01
1007715,-3.671538E+01
1007725,-3.529231E+01
1007735,-3.353846E+01
1007745,-3.323846E+01
1007755,-3.339615E+01
1007765,-3.204231E+01
1007775,-3.110769E+01
1007785,-3.111923E+01
1007795,-3.167692E+01
1007805,-3.140769E+01
1007815,-3.123077E+01
1007825,-3.171538E+01
1007835,-3.192308E+01
1007845,-3.114231E+01
1007855,-2.989615E+01
1007865,-2.937692E+01
1007875,-2.723077E+01
1007885,-2.306923E+01
1007895,-1.758846E+01
1007905,-1.146923E+01
1007915,-6.415385E+00
1007925,-2.465385E+00
1007935,-3.923077E-01
1007945,+5.000000E-02
1007955,-5.730769E-01
1007965,-2.230769E+00
1007975,-5.776923E+00
1007985,-1.001923E+01
1007995,-1.567308E+01
1008005,-2.194615E+01
1008015,-2.587692E+01
1008025,-3.101923E+01
1008035,-3.791538E+01
1008045,-3.840385E+01
1008055,-6.373077E+00
1008065,+2.666923E+01
1008075,+4.356538E+01
1008085,+3.580385E+01
1008095,+3.212692E+01
1008105,+3.252308E+01
1008115,+3.266923E+01
1008125,+3.561538E+01
1008135,+4.173462E+01
1008145,+4.329615E+01
1008155,+1.347692E+01
1008165,-1.605000E+01
1008175,-2.816923E+01
1008185,-1.562308E+01
1008195,-7.123077E+00
1008205,-3.403846E+00
1008215,-1.384615E-01
1008225,+3.819231E+00
1008235,+8.980769E+00
1008245,+1.382308E+01
1008255,+1.841538E+01
1008265,+2.471538E+01
1008275,+3.255385E+01
1008285,+4.116923E+01
1008295,+5.043846E+01
1008305,+6.123077E+01
1008315,+7.281154E+01
1008325,+8.382308E+01
1008335,+9.049615E+01
1008345,+9.456154E+01
1008355,+9.584231E+01
1008365,+9.220000E+01
1008375,+8.307692E+01
1008385,+7.188077E+01
1008395,+5.922692E+01
1008405,+4.443462E+01
1008415,+2.710000E+01
1008425,+9.492308E+00
1008435,-5.184615E+00
1008445,-1.666154E+01
1008455,-2.508462E+01
1008465,-3.031923E+01
1008475,-3.214615E+01
1008485,-3.352308E+01
1008495,-3.419231E+01
1008505,-3.361923E+01
1008515,-3.148846E+01
1008525,-2.975769E+01
1008535,-2.840000E+01
1008545,-2.769231E+01
1008555,-2.699615E+01
1008565,-2.613846E+01
1008575,-2.535769E+01
1008585,-2.499615E+01
1008595,-2.435000E+01
1008605,-2.383462E+01
1008615,-2.369615E+01
1008625,-2.287308E+01
1008635,-2.139231E+01
1008645,-2.023846E+01
1008655,-2.007692E+01
1008665,-2.004615E+01
1008675,-2.026923E+01
1008685,-2.049231E+01
1008695,-2.091538E+01
1008705,-2.166154E+01
1008715,-2.212692E+01
1008725,-2.238077E+01
1008735,-2.238077E+01
1008745,-2.205769E+01
1008755,-2.063846E+01
1008765,-1.766923E+01
1008775,-1.322308E+01
1008785,-7.469231E+00
1008795,-1.250000E+00
1008805,+4.288462E+00
1008815,+8.073077E+00
1008825,+9.603846E+00
1008835,+1.007308E+01
1008845,+1.033077E+01
1008855,+9.561538E+00
1008865,+6.469231E+00
1008875,+2.207692E+00
1008885,-3.042308E+00
1008895,-8.176923E+00
1008905,-1.178846E+01
1008915,-1.909231E+01
1008925,-2.335385E+01
1008935,-1.439615E+01
1008945,+1.746923E+01
1008955,+3.670769E+01
1008965,+3.643462E+01
1008975,+2.533462E+01
1008985,+2.207308E+01
1008995,+2.112692E+01
1009005,+2.035000E+01
1009015,+2.597308E+01
1009025,+3.071154E+01
1009035,+2.311923E+01
1009045,-7.334615E+00
1009055,-2.534615E+01
1009065,-2.279231E+01
1009075,-8.607692E+00
1009085,-2.030769E+00
1009095,+1.853846E+00
1009105,+5.915385E+00
1009115,+9.788462E+00
1009125,+1.366923E+01
1009135,+1.769615E+01
1009145,+2.328077E+01
1009155,+3.099231E+01
1009165,+4.056538E+01
1009175,+5.063846E+01
1009185,+6.198846E+01
1009195,+7.524231E+01
1009205,+8.690000E+01
1009215,+9.610000E+01
1009225,+1.028115E+02
1009235,+1.036769E+02
1009245,+1.005231E+02
1009255,+9.410769E+01
1009265,+8.240769E+01
1009275,+6.760000E+01
1009285,+5.001538E+01
1009295,+2.981538E+01
1009305,+1.025385E+01
1009315,-7.319231E+00
1009325,-2.244615E+01
1009335,-3.248462E+01
1009345,-3.991154E+01
1009355,-4.460769E+01
1009365,-4.540769E+01
1009375,-4.517308E+01
1009385,-4.444231E+01
1009395,-4.346154E+01
1009405,-4.176154E+01
1009415,-3.914615E+01
1009425,-3.669231E+01
1009435,-3.433846E+01
1009445,-3.250385E+01
1009455,-3.172308E+01
1009465,-3.245769E+01
1009475,-3.336538E+01
1009485,-3.367308E+01
1009495,-3.315000E+01
1009505,-3.258846E+01
1009515,-3.317692E+01
1009525,-3.395000E+01
1009535,-3.459231E+01
1009545,-3.511154E+01
1009555,-3.603462E+01
1009565,-3.535000E+01
1009575,-3.311154E+01
1009585,-3.185769E+01
1009595,-3.168077E+01
1009605,-3.186923E+01
1009615,-3.157308E+01
1009625,-3.027692E+01
1009635,-2.856538E+01
1009645,-2.606154E+01
1009655,-2.254231E+01
1009665,-1.858077E+01
1009675,-1.508846E+01
1009685,-1.105000E+01
1009695,-9.730769E+00
1009705,-9.711538E+00
1009715,-1.005385E+01
1009725,-1.050769E+01
1009735,-1.189615E+01
1009745,-1.460385E+01
1009755,-1.790385E+01
1009765,-2.129231E+01
1009775,-2.578077E+01
1009785,-3.231154E+01
1009795,-3.681923E+01
1009805,-1.668462E+01
1009815,+1.446154E+01
1009825,+3.875769E+01
1009835,+2.966538E+01
1009845,+1.910769E+01
1009855,+1.468846E+01
1009865,+1.325769E+01
1009875,+1.308462E+01
1009885,+1.622692E+01
1009895,+2.088077E+01
1009905,+2.107692E+00
1009915,-2.674615E+01
1009925,-4.861154E+01
1009935,-3.709231E+01
1009945,-2.420769E+01
1009955,-1.594231E+01
1009965,-1.151538E+01
1009975,-8.242308E+00
1009985,-5.103846E+00
1009995,-1.000000E+00
1010005,+3.819231E+00
1010015,+8.988462E+00
1010025,+1.423462E+01
1010035,+2.158077E+01
1010045,+3.173462E+01
1010055,+4.297692E+01
1010065,+5.394615E+01
1010075,+6.526538E+01
1010085,+7.385385E+01
1010095,+7.909615E+01
1010105,+8.088846E+01
1010115,+7.877308E+01
1010125,+7.160769E+01
1010135,+6.154231E+01
1010145,+4.920385E+01
1010155,+3.404615E+01
1010165,+1.710000E+01
1010175,+5.692308E-01
1010185,-1.291923E+01
1010195,-2.476923E+01
1010205,-3.463077E+01
1010215,-4.178462E+01
1010225,-4.456154E+01
1010235,-4.558846E+01
1010245,-4.645000E+01
1010255,-4.735000E+01
1010265,-4.659615E+01
1010275,-4.520769E+01
1010285,-4.422692E+01
1010295,-4.320385E+01
1010305,-4.203462E+01
1010315,-4.070000E+01
1010325,-3.951154E+01
1010335,-3.872308E+01
1010345,-3.729231E+01
1010355,-3.508846E+01
1010365,-3.337692E+01
1010375,-3.256154E+01
1010385,-3.135000E+01
1010395,-2.931538E+01
1010405,-2.698077E+01
1010415,-2.602692E+01
1010425,-2.542692E+01
1010435,-2.503846E+01
1010445,-2.546538E+01
1010455,-2.589231E+01
1010465,-2.543077E+01
1010475,-2.479231E+01
1010485,-2.479231E+01
1010495,-2.480769E+01
1010505,-2.463077E+01
1010515,-2.382308E+01
1010525,-2.208462E+01
1010535,-1.916154E+01
1010545,-1.528077E+01
1010555,-1.028077E+01
1010565,-5.323077E+00
1010575,-1.284615E+00
1010585,-5.538462E-01
1010595,-9.000000E-01
1010605,-1.765385E+00
1010615,-2.873077E+00
1010625,-5.219231E+00
1010635,-8.657692E+00
1010645,-1.243462E+01
1010655,-1.700769E+01
1010665,-2.405385E+01
1010675,-3.264231E+01
1010685,-3.655000E+01
1010695,-1.241923E+01
1010705,+2.051538E+01
1010715,+4.510385E+01
1010725,+5.148077E+01
1010735,+4.448462E+01
1010745,+4.223077E+01
1010755,+4.162308E+01
1010765,+4.298077E+01
1010775,+4.835769E+01
1010785,+5.262692E+01
1010795,+2.801538E+01
1010805,-5.038462E+00
1010815,-2.735000E+01
1010825,-2.968846E+01
1010835,-1.821538E+01
1010845,-1.230769E+01
1010855,-9.123077E+00
1010865,-6.015385E+00
1010875,-1.684615E+00
1010885,+3.126923E+00
1010895,+1.007308E+01
1010905,+1.738846E+01
1010915,+2.431923E+01
1010925,+3.183462E+01
1010935,+4.060000E+01
1010945,+5.155385E+01
1010955,+6.417692E+01
1010965,+7.730385E+01
1010975,+8.600385E+01
1010985,+8.969615E+01
1010995,+9.112308E+01
1011005,+9.037308E+01
1011015,+8.127692E+01
1011025,+6.848846E+01
1011035,+5.417308E+01
1011045,+3.831923E+01
1011055,+2.018846E+01
1011065,+2.457692E+00
1011075,-1.284615E+01
1011085,-2.386154E+01
1011095,-3.369615E+01
1011105,-4.296923E+01
1011115,-4.611538E+01
1011125,-4.431154E+01
1011135,-4.325769E+01
1011145,-4.372692E+01
1011155,-4.331923E+01
1011165,-4.298077E+01
1011175,-4.388462E+01
1011185,-4.381538E+01
1011195,-3.926154E+01
1011205,-3.452692E+01
1011215,-3.093462E+01
1011225,-3.177308E+01
1011235,-3.164615E+01
1011245,-2.808462E+01
1011255,-2.283077E+01
1011265,-1.889615E+01
1011275,-1.653846E+01
1011285,-1.610769E+01
1011295,-1.927692E+01
1011305,-2.020000E+01
1011315,-2.035000E+01
1011325,-1.962692E+01
1011335,-1.746923E+01
1011345,-1.785769E+01
1011355,-1.964231E+01
1011365,-1.909615E+01
1011375,-1.610385E+01
1011385,-1.409231E+01
1011395,-1.303462E+01
1011405,-1.134231E+01
1011415,-5.753846E+00
1011425,+4.961538E-01
1011435,+5.069231E+00
1011445,+1.026923E+01
1011455,+1.381154E+01
1011465,+1.358077E+01
1011475,+1.144231E+01
1011485,+1.007692E+01
1011495,+9.288462E+00
1011505,+7.557692E+00
1011515,+3.111538E+00
1011525,-2.319231E+00
1011535,-7.142308E+00
1011545,-1.124231E+01
1011555,-1.915385E+01
1011565,-2.184615E+01
1011575,-8.142308E+00
1011585,+2.610000E+01
1011595,+4.471538E+01
1011605,+4.321154E+01
1011615,+3.334231E+01
1011625,+3.275769E+01
1011635,+3.279231E+01
1011645,+3.138077E+01
1011655,+3.480385E+01
1011665,+3.533846E+01
1011675,+2.166154E+01
1011685,-1.104615E+01
1011695,-2.734231E+01
1011705,-2.423077E+01
1011715,-1.281923E+01
1011725,-9.753846E+00
1011735,-7.342308E+00
1011745,-4.296154E+00
1011755,-5.730769E-01
1011765,+4.773077E+00
1011775,+1.014615E+01
1011785,+1.589615E+01
1011795,+2.218462E+01
1011805,+3.135000E+01
1011815,+4.093846E+01
1011825,+5.025385E+01
1011835,+6.034231E+01
1011845,+7.110769E+01
1011855,+8.086538E+01
1011865,+8.633846E+01
1011875,+8.548846E+01
1011885,+8.196923E+01
1011895,+7.514615E+01
1011905,+6.359615E+01
1011915,+4.941154E+01
1011925,+3.505769E+01
1011935,+1.913462E+01
1011945,+1.880769E+00
1011955,-1.458846E+01
1011965,-2.815385E+01
1011975,-3.545385E+01
1011985,-4.102692E+01
1011995,-4.506923E+01
1012005,-4.695385E+01
1012015,-4.667692E+01
1012025,-4.668462E+01
1012035,-4.575769E+01
1012045,-4.264615E+01
1012055,-3.958462E+01
1012065,-3.779615E+01
1012075,-3.668846E+01
1012085,-3.445385E+01
1012095,-3.209615E+01
1012105,-3.057308E+01
1012115,-2.918846E+01
1012125,-2.695385E+01
1012135,-2.526923E+01
1012145,-2.453846E+01
1012155,-2.344231E+01
1012165,-2.209615E+01
1012175,-2.046154E+01
1012185,-1.953846E+01
1012195,-1.977308E+01
1012205,-2.048846E+01
1012215,-2.088846E+01
1012225,-2.088846E+01
1012235,-2.057692E+01
1012245,-2.100385E+01
1012255,-2.163462E+01
1012265,-1.984231E+01
1012275,-1.721538E+01
1012285,-1.425385E+01
1012295,-9.776923E+00
1012305,-5.446154E+00
1012315,-2.569231E+00
1012325,-1.811538E+00
1012335,-2.169231E+00
1012345,-2.346154E+00
1012355,-2.811538E+00
1012365,-5.265385E+00
1012375,-8.319231E+00
1012385,-1.136923E+01
1012395,-1.385769E+01
1012405,-1.576538E+01
1012415,-2.079615E+01
1012425,-1.564615E+01
1012435,+6.350000E+00
1012445,+2.819231E+01
1012455,+3.158846E+01
1012465,+2.258846E+01
1012475,+1.273846E+01
1012485,+1.002308E+01
1012495,+7.776923E+00
1012505,+7.326923E+00
1012515,+1.176923E+01
1012525,+7.050000E+00
1012535,-1.401923E+01
1012545,-3.451923E+01
1012555,-3.579615E+01
1012565,-2.403846E+01
1012575,-1.101923E+01
1012585,-4.038462E+00
1012595,+2.184615E+00
1012605,+7.269231E+00
1012615,+1.183846E+01
1012625,+1.742308E+01
1012635,+2.421923E+01
1012645,+3.201923E+01
1012655,+4.124615E+01
1012665,+5.063462E+01
1012675,+6.025385E+01
1012685,+6.961154E+01
1012695,+7.986538E+01
1012705,+8.851538E+01
1012715,+9.484615E+01
1012725,+9.778846E+01
1012735,+9.413077E+01
1012745,+8.700385E+01
1012755,+7.620769E+01
1012765,+6.286923E+01
1012775,+4.801923E+01
1012785,+3.115385E+01
1012795,+1.231154E+01
1012805,-6.319231E+00
1012815,-2.325385E+01
1012825,-3.746154E+01
1012835,-4.426154E+01
1012845,-4.879231E+01
1012855,-5.205000E+01
1012865,-5.378846E+01
1012875,-5.481923E+01
1012885,-5.516538E+01
1012895,-5.463462E+01
1012905,-5.296538E+01
1012915,-5.076538E+01
1012925,-4.844231E+01
1012935,-4.754231E+01
1012945,-4.626538E+01
1012955,-4.461538E+01
1012965,-4.276154E+01
1012975,-4.146154E+01
1012985,-4.019231E+01
1012995,-3.870000E+01
1013005,-3.698846E+01
1013015,-3.575000E+01
1013025,-3.469615E+01
1013035,-3.448846E+01
1013045,-3.558077E+01
1013055,-3.695385E+01
1013065,-3.725000E+01
1013075,-3.652308E+01
1013085,-3.652692E+01
1013095,-3.718077E+01
1013105,-3.725000E+01
1013115,-3.572308E+01
1013125,-3.211538E+01
1013135,-2.751923E+01
1013145,-2.176154E+01
1013155,-1.731154E+01
1013165,-1.561538E+01
1013175,-1.597692E+01
1013185,-1.621923E+01
1013195,-1.590000E+01
1013205,-1.648077E+01
1013215,-1.820000E+01
1013225,-2.212692E+01
1013235,-2.667308E+01
1013245,-3.091923E+01
1013255,-3.441923E+01
1013265,-3.803846E+01
1013275,-2.911538E+01
1013285,-2.638462E+00
1013295,+3.063462E+01
1013305,+3.286538E+01
1013315,+2.281538E+01
1013325,+1.336538E+01
1013335,+1.294231E+01
1013345,+1.252692E+01
1013355,+1.356154E+01
1013365,+1.707308E+01
1013375,+9.226923E+00
1013385,-1.597308E+01
1013395,-4.841538E+01
1013405,-4.804231E+01
1013415,-3.445385E+01
1013425,-2.144615E+01
1013435,-1.783077E+01
1013445,-1.306538E+01
1013455,-8.276923E+00
1013465,-4.030769E+00
1013475,+5.923077E-01
1013485,+7.696154E+00
1013495,+1.544231E+01
1013505,+2.250000E+01
1013515,+3.185769E+01
1013525,+4.192308E+01
1013535,+5.237308E+01
1013545,+6.146154E+01
1013555,+6.956923E+01
1013565,+7.606923E+01
1013575,+7.985385E+01
1013585,+7.603846E+01
1013595,+6.895000E+01
1013605,+5.911923E+01
1013615,+4.542692E+01
1013625,+3.062308E+01
1013635,+1.535769E+01
1013645,-5.769231E-01
1013655,-1.614231E+01
1013665,-3.006538E+01
1013675,-4.140769E+01
1013685,-4.702308E+01
1013695,-5.018846E+01
1013705,-5.171154E+01
1013715,-5.213462E+01
1013725,-5.133462E+01
1013735,-4.936154E+01
1013745,-4.738462E+01
1013755,-4.569615E+01
1013765,-4.481154E+01
1013775,-4.401923E+01
1013785,-4.308846E+01
1013795,-4.168846E+01
1013805,-4.003462E+01
1013815,-3.911154E+01
1013825,-3.946923E+01
1013835,-4.053462E+01
1013845,-4.085385E+01
1013855,-4.082308E+01
1013865,-4.065385E+01
1013875,-4.045769E+01
1013885,-4.016154E+01
1013895,-4.014231E+01
1013905,-4.040385E+01
1013915,-3.989231E+01
1013925,-3.862692E+01
1013935,-3.740000E+01
1013945,-3.577692E+01
1013955,-3.375385E+01
1013965,-3.055000E+01
1013975,-2.655000E+01
1013985,-2.115385E+01
1013995,-1.593462E+01
1014005,-1.140000E+01
1014015,-1.038077E+01
1014025,-1.045000E+01
1014035,-1.046538E+01
1014045,-1.057692E+01
1014055,-1.042692E+01
1014065,-1.172308E+01
1014075,-1.517308E+01
1014085,-1.893846E+01
1014095,-2.295769E+01
1014105,-2.915000E+01
1014115,-3.359615E+01
1014125,-1.300385E+01
1014135,+1.906923E+01
1014145,+4.541538E+01
1014155,+3.861538E+01
1014165,+2.971538E+01
1014175,+2.722692E+01
1014185,+2.737308E+01
1014195,+2.724615E+01
1014205,+2.978846E+01
1014215,+3.381538E+01
1014225,+1.441538E+01
1014235,-1.496923E+01
1014245,-3.962692E+01
1014255,-3.245385E+01
1014265,-2.125385E+01
1014275,-1.429615E+01
1014285,-1.145000E+01
1014295,-8.011538E+00
1014305,-2.711538E+00
1014315,+3.726923E+00
1014325,+1.045385E+01
1014335,+1.686538E+01
1014345,+2.382308E+01
1014355,+3.215000E+01
1014365,+4.096538E+01
1014375,+5.213846E+01
1014385,+6.419615E+01
1014395,+7.635385E+01
1014405,+8.371923E+01
1014415,+8.745385E+01
1014425,+8.741923E+01
1014435,+8.320000E+01
1014445,+7.410385E+01
1014455,+6.351154E+01
1014465,+5.119615E+01
1014475,+3.493077E+01
1014485,+1.666538E+01
1014495,-1.169231E+00
1014505,-1.508462E+01
1014515,-2.707308E+01
1014525,-3.637308E+01
1014535,-4.266154E+01
1014545,-4.439615E+01
1014555,-4.528846E+01
1014565,-4.556538E+01
1014575,-4.461154E+01
1014585,-4.242308E+01
1014595,-4.086154E+01
1014605,-3.987692E+01
1014615,-3.843846E+01
1014625,-3.740000E+01
1014635,-3.693077E+01
1014645,-3.646923E+01
1014655,-3.510385E+01
1014665,-3.373462E+01
1014675,-3.321538E+01
1014685,-3.371923E+01
1014695,-3.429615E+01
1014705,-3.459615E+01
1014715,-3.495000E+01
1014725,-3.518077E+01
1014735,-3.485000E+01
1014745,-3.380769E+01
1014755,-3.329615E+01
1014765,-3.333077E+01
1014775,-3.321923E+01
1014785,-3.221538E+01
1014795,-3.053462E+01
1014805,-2.841923E+01
1014815,-2.621154E+01
1014825,-2.294231E+01
1014835,-1.686923E+01
1014845,-1.098462E+01
1014855,-6.126923E+00
1014865,-2.503846E+00
1014875,-1.996154E+00
1014885,-2.434615E+00
1014895,-3.503846E+00
1014905,-6.173077E+00
1014915,-9.188462E+00
1014925,-1.245769E+01
1014935,-1.794615E+01
1014945,-2.236154E+01
1014955,-2.656538E+01
1014965,-3.180000E+01
1014975,-3.663462E+01
1014985,-2.329231E+01
1014995,+6.373077E+00
1015005,+3.981923E+01
1015015,+4.096538E+01
1015025,+3.346538E+01
1015035,+2.776538E+01
1015045,+2.481538E+01
1015055,+2.326154E+01
1015065,+2.474615E+01
1015075,+2.938077E+01
1015085,+1.617308E+01
1015095,-1.299231E+01
1015105,-4.435769E+01
1015115,-4.250769E+01
1015125,-3.191923E+01
1015135,-2.385000E+01
1015145,-1.976538E+01
1015155,-1.459615E+01
1015165,-9.284615E+00
1015175,-4.165385E+00
1015185,+1.357692E+00
1015195,+9.980769E+00
1015205,+2.011154E+01
1015215,+3.081538E+01
1015225,+4.134231E+01
1015235,+5.320000E+01
1015245,+6.575769E+01
1015255,+7.675385E+01
1015265,+8.560000E+01
1015275,+9.205769E+01
1015285,+9.586923E+01
1015295,+9.376154E+01
1015305,+8.471923E+01
1015315,+7.294231E+01
1015325,+5.994231E+01
1015335,+4.462308E+01
1015345,+2.811538E+01
1015355,+1.172692E+01
1015365,-2.346154E+00
1015375,-1.501923E+01
1015385,-2.571923E+01
1015395,-3.363462E+01
1015405,-3.549615E+01
1015415,-3.583462E+01
1015425,-3.577692E+01
1015435,-3.500769E+01
1015445,-3.348846E+01
1015455,-3.256538E+01
1015465,-3.266154E+01
1015475,-3.178846E+01
1015485,-3.035769E+01
1015495,-2.955385E+01
1015505,-2.984615E+01
1015515,-2.900769E+01
1015525,-2.815385E+01
1015535,-2.761538E+01
1015545,-2.788846E+01
1015555,-2.832692E+01
1015565,-2.809231E+01
1015575,-2.720000E+01
1015585,-2.697308E+01
1015595,-2.723077E+01
1015605,-2.791154E+01
1015615,-2.920769E+01
1015625,-2.876154E+01
1015635,-2.748462E+01
1015645,-2.622308E+01
1015655,-2.504231E+01
1015665,-2.332308E+01
1015675,-2.101923E+01
1015685,-1.724615E+01
1015695,-1.262692E+01
1015705,-7.384615E+00
1015715,-2.757692E+00
1015725,-6.000000E-01
1015735,-7.461538E-01
1015745,-8.884615E-01
1015755,-1.088462E+00
1015765,-2.926923E+00
1015775,-6.276923E+00
1015785,-9.865385E+00
1015795,-1.230769E+01
1015805,-1.727308E+01
1015815,-2.575000E+01
1015825,-2.986154E+01
1015835,-1.088462E+00
1015845,+2.890769E+01
1015855,+4.282692E+01
1015865,+3.836154E+01
1015875,+3.148077E+01
1015885,+2.990769E+01
1015895,+2.930769E+01
1015905,+3.106538E+01
1015915,+3.642308E+01
1015925,+3.923846E+01
1015935,+1.211154E+01
1015945,-1.621538E+01
1015955,-2.868077E+01
1015965,-2.198846E+01
1015975,-1.193077E+01
1015985,-6.976923E+00
1015995,-3.611538E+00
1016005,+1.846154E-01
1016015,+4.946154E+00
1016025,+9.892308E+00
1016035,+1.550000E+01
1016045,+2.294615E+01
1016055,+3.245385E+01
1016065,+4.244231E+01
1016075,+5.266538E+01
1016085,+6.545000E+01
1016095,+7.848077E+01
1016105,+9.006923E+01
1016115,+9.895000E+01
1016125,+1.025154E+02
1016135,+1.017654E+02
1016145,+9.680769E+01
1016155,+8.695385E+01
1016165,+7.500769E+01
1016175,+6.095385E+01
1016185,+4.310385E+01
1016195,+2.376923E+01
1016205,+4.592308E+00
1016215,-1.293846E+01
1016225,-2.548077E+01
1016235,-3.401538E+01
1016245,-4.038077E+01
1016255,-4.380769E+01
1016265,-4.524615E+01
1016275,-4.571923E+01
1016285,-4.580000E+01
1016295,-4.475385E+01
1016305,-4.208846E+01
1016315,-3.968077E+01
1016325,-3.835000E+01
1016335,-3.777308E+01
1016345,-3.662692E+01
1016355,-3.555000E+01
1016365,-3.549231E+01
1016375,-3.423462E+01
1016385,-3.224231E+01
1016395,-3.054615E+01
1016405,-3.072692E+01
1016415,-3.127308E+01
1016425,-3.184615E+01
1016435,-3.270385E+01
1016445,-3.226154E+01
1016455,-3.119231E+01
1016465,-2.955000E+01
1016475,-2.889231E+01
1016485,-2.951538E+01
1016495,-2.970769E+01
1016505,-2.774615E+01
1016515,-2.235385E+01
1016525,-1.629615E+01
1016535,-1.150769E+01
1016545,-9.926923E+00
1016555,-1.037308E+01
1016565,-1.103077E+01
1016575,-1.205000E+01
1016585,-1.268462E+01
1016595,-1.359615E+01
1016605,-1.583846E+01
1016615,-2.074615E+01
1016625,-2.502308E+01
1016635,-3.004231E+01
1016645,-3.651154E+01
1016655,-2.694615E+01
1016665,-1.423077E+00
1016675,+2.845385E+01
1016685,+4.583077E+01
1016695,+3.588077E+01
1016705,+2.808846E+01
1016715,+2.522308E+01
1016725,+2.361154E+01
1016735,+2.454615E+01
1016745,+2.892692E+01
1016755,+1.914615E+01
1016765,-5.876923E+00
1016775,-3.426923E+01
1016785,-4.920385E+01
1016795,-3.662692E+01
1016805,-2.488462E+01
1016815,-1.791923E+01
1016825,-1.304231E+01
1016835,-7.984615E+00
1016845,-2.130769E+00
1016855,+4.330769E+00
1016865,+1.069231E+01
1016875,+1.841923E+01
1016885,+2.638846E+01
1016895,+3.483846E+01
1016905,+4.365000E+01
1016915,+5.313846E+01
1016925,+6.362308E+01
1016935,+7.367692E+01
1016945,+8.054231E+01
1016955,+8.365000E+01
1016965,+8.280000E+01
1016975,+7.712692E+01
1016985,+6.745000E+01
1016995,+5.589231E+01
1017005,+4.180000E+01
1017015,+2.603077E+01
1017025,+9.500000E+00
1017035,-7.580769E+00
1017045,-2.312692E+01
1017055,-3.591923E+01
1017065,-4.443077E+01
1017075,-4.922692E+01
1017085,-5.053846E+01
1017095,-5.131154E+01
1017105,-5.149231E+01
1017115,-5.087308E+01
1017125,-5.025385E+01
1017135,-4.991538E+01
1017145,-4.906923E+01
1017155,-4.698846E+01
1017165,-4.574615E+01
1017175,-4.571154E+01
1017185,-4.596538E+01
1017195,-4.425769E+01
1017205,-4.228077E+01
1017215,-4.075385E+01
1017225,-3.966154E+01
1017235,-3.823077E+01
1017245,-3.662308E+01
1017255,-3.562308E+01
1017265,-3.445769E+01
1017275,-3.360000E+01
1017285,-3.313846E+01
1017295,-3.416538E+01
1017305,-3.510000E+01
1017315,-3.484615E+01
1017325,-3.388462E+01
1017335,-3.306154E+01
1017345,-3.098846E+01
1017355,-2.698846E+01
1017365,-2.186154E+01
1017375,-1.734615E+01
1017385,-1.336154E+01
1017395,-1.037308E+01
1017405,-9.092308E+00
1017415,-8.523077E+00
1017425,-8.803846E+00
1017435,-9.773077E+00
1017445,-1.180385E+01
1017455,-1.591923E+01
1017465,-2.144615E+01
1017475,-2.547308E+01
1017485,-3.166923E+01
1017495,-3.830000E+01
1017505,-3.635385E+01
1017515,-7.092308E+00
1017525,+1.831923E+01
1017535,+2.764615E+01
1017545,+2.228462E+01
1017555,+1.882308E+01
1017565,+1.903846E+01
1017575,+1.933462E+01
1017585,+2.225000E+01
1017595,+2.614615E+01
1017605,+2.324615E+01
1017615,-6.273077E+00
1017625,-3.055000E+01
1017635,-3.760385E+01
1017645,-2.973077E+01
1017655,-2.430769E+01
1017665,-2.281538E+01
1017675,-2.120385E+01
1017685,-1.795000E+01
1017695,-1.227308E+01
1017705,-6.184615E+00
1017715,+4.038462E-01
1017725,+7.673077E+00
1017735,+1.674615E+01
1017745,+2.568077E+01
1017755,+3.603846E+01
1017765,+4.875769E+01
1017775,+6.046538E+01
1017785,+7.015385E+01
1017795,+7.672692E+01
1017805,+7.797308E+01
1017815,+7.550000E+01
1017825,+6.941538E+01
1017835,+5.827692E+01
1017845,+4.605385E+01
1017855,+3.256538E+01
1017865,+1.658077E+01
1017875,+1.576923E-01
1017885,-1.525769E+01
1017895,-2.913077E+01
1017905,-3.793077E+01
1017915,-4.366923E+01
1017925,-4.691538E+01
1017935,-4.734615E+01
1017945,-4.692692E+01
1017955,-4.533462E+01
1017965,-4.302692E+01
1017975,-4.053846E+01
1017985,-3.905385E+01
1017995,-3.705769E+01
1018005,-3.472308E+01
1018015,-3.392308E+01
1018025,-3.409615E+01
1018035,-3.393077E+01
1018045,-3.336923E+01
1018055,-3.339615E+01
1018065,-3.398846E+01
1018075,-3.388846E+01
1018085,-3.224615E+01
1018095,-3.138077E+01
1018105,-3.134615E+01
1018115,-3.036154E+01
1018125,-2.879231E+01
1018135,-2.771538E+01
1018145,-2.703846E+01
1018155,-2.556538E+01
1018165,-2.386154E+01
1018175,-2.226154E+01
1018185,-2.140769E+01
1018195,-2.080000E+01
1018205,-1.899615E+01
1018215,-1.541923E+01
1018225,-1.089615E+01
1018235,-5.726923E+00
1018245,-1.623077E+00
1018255,-4.846154E-01
1018265,-2.084615E+00
1018275,-3.430769E+00
1018285,-4.473077E+00
1018295,-5.315385E+00
1018305,-6.976923E+00
1018315,-1.040385E+01
1018325,-1.491538E+01
1018335,-1.888846E+01
1018345,-2.403077E+01
1018355,-3.050769E+01
1018365,-3.186538E+01
1018375,-4.003846E+00
1018385,+2.762692E+01
1018395,+4.624615E+01
1018405,+3.755769E+01
1018415,+3.079615E+01
1018425,+2.881923E+01
1018435,+2.771923E+01
1018445,+2.904615E+01
1018455,+3.415769E+01
1018465,+3.732308E+01
1018475,+1.133462E+01
1018485,-1.934231E+01
1018495,-3.685385E+01
1018505,-2.682308E+01
1018515,-1.733077E+01
1018525,-1.208077E+01
1018535,-8.315385E+00
1018545,-4.823077E+00
1018555,-6.230769E-01
1018565,+4.369231E+00
1018575,+1.004231E+01
1018585,+1.732308E+01
1018595,+2.562308E+01
1018605,+3.509615E+01
1018615,+4.446538E+01
1018625,+5.424231E+01
1018635,+6.426923E+01
1018645,+7.418077E+01
1018655,+7.993846E+01
1018665,+8.223077E+01
1018675,+8.117692E+01
1018685,+7.685769E+01
1018695,+6.803462E+01
1018705,+5.623077E+01
1018715,+4.223462E+01
1018725,+2.664615E+01
1018735,+9.988462E+00
1018745,-6.650000E+00
1018755,-2.004615E+01
1018765,-3.015769E+01
1018775,-3.792692E+01
1018785,-4.374231E+01
1018795,-4.572308E+01
1018805,-4.451923E+01
1018815,-4.236154E+01
1018825,-4.009231E+01
1018835,-3.764615E+01
1018845,-3.502308E+01
1018855,-3.281538E+01
1018865,-3.188846E+01
1018875,-3.148846E+01
1018885,-3.081154E+01
1018895,-3.020000E+01
1018905,-3.085000E+01
1018915,-3.161923E+01
1018925,-3.203462E+01
1018935,-3.175000E+01
1018945,-3.069615E+01
1018955,-2.971538E+01
1018965,-2.867308E+01
1018975,-2.683846E+01
1018985,-2.523846E+01
1018995,-2.435769E+01
1019005,-2.426538E+01
1019015,-2.348462E+01
1019025,-2.216538E+01
1019035,-2.165385E+01
1019045,-2.324615E+01
1019055,-2.445000E+01
1019065,-2.402308E+01
1019075,-2.210385E+01
1019085,-1.780769E+01
1019095,-1.250769E+01
1019105,-6.619231E+00
1019115,-1.930769E+00
1019125,-9.461538E-01
1019135,-8.961538E-01
1019145,-8.115385E-01
1019155,-1.203846E+00
1019165,-2.169231E+00
1019175,-4.750000E+00
1019185,-1.060385E+01
1019195,-1.486154E+01
1019205,-1.786154E+01
1019215,-2.235769E+01
1019225,-2.763846E+01
1019235,-1.240769E+01
1019245,+2.068846E+01
1019255,+5.510000E+01
1019265,+5.311538E+01
1019275,+4.395769E+01
1019285,+3.985385E+01
1019295,+3.864231E+01
1019305,+3.659231E+01
1019315,+3.722308E+01
1019325,+4.226923E+01
1019335,+2.800000E+01
1019345,-2.853846E+00
1019355,-3.386538E+01
1019365,-2.826538E+01
1019375,-1.488077E+01
1019385,-5.676923E+00
1019395,-1.719231E+00
1019405,+3.165385E+00
1019415,+8.434615E+00
1019425,+1.392308E+01
1019435,+2.022692E+01
1019445,+2.822308E+01
1019455,+3.620769E+01
1019465,+4.406538E+01
1019475,+5.277308E+01
1019485,+6.339231E+01
1019495,+7.416923E+01
1019505,+8.359615E+01
1019515,+9.234615E+01
1019525,+9.849231E+01
1019535,+1.006385E+02
1019545,+9.748077E+01
1019555,+8.968846E+01
1019565,+8.002692E+01
1019575,+6.813846E+01
1019585,+5.268846E+01
1019595,+3.620769E+01
1019605,+1.893077E+01
1019615,+1.680769E+00
1019625,-1.262692E+01
1019635,-2.354615E+01
1019645,-3.092692E+01
1019655,-3.346538E+01
1019665,-3.512692E+01
1019675,-3.664615E+01
1019685,-3.641538E+01
1019695,-3.498462E+01
1019705,-3.343462E+01
1019715,-3.213077E+01
1019725,-3.130769E+01
1019735,-2.993462E+01
1019745,-2.895385E+01
1019755,-2.901538E+01
1019765,-2.841923E+01
1019775,-2.752692E+01
1019785,-2.672308E+01
1019795,-2.617692E+01
1019805,-2.541923E+01
1019815,-2.485769E+01
1019825,-2.486538E+01
1019835,-2.503077E+01
1019845,-2.465769E+01
1019855,-2.435385E+01
1019865,-2.496154E+01
1019875,-2.550385E+01
1019885,-2.518077E+01
1019895,-2.431538E+01
1019905,-2.297308E+01
1019915,-2.078462E+01
1019925,-1.740769E+01
1019935,-1.361154E+01
1019945,-1.008462E+01
1019955,-6.980769E+00
1019965,-4.365385E+00
1019975,-2.242308E+00
1019985,-2.638462E+00
1019995,-4.384615E+00
1020005,-6.761538E+00
1020015,-9.700000E+00
1020025,-1.398462E+01
1020035,-1.832692E+01
1020045,-2.099231E+01
1020055,-2.551154E+01
1020065,-3.277692E+01
1020075,-3.421923E+01
1020085,-3.315385E+00
1020095,+2.594231E+01
1020105,+3.781154E+01
1020115,+3.280000E+01
1020125,+2.787308E+01
1020135,+2.694231E+01
1020145,+2.633462E+01
1020155,+2.970000E+01
1020165,+3.653462E+01
1020175,+3.836154E+01
1020185,+9.788462E+00
1020195,-1.618462E+01
1020205,-2.396154E+01
1020215,-1.449615E+01
1020225,-5.123077E+00
1020235,-3.692308E-01
1020245,+2.773077E+00
1020255,+4.446154E+00
1020265,+7.638462E+00
1020275,+1.215385E+01
1020285,+1.748077E+01
1020295,+2.339615E+01
1020305,+3.128846E+01
1020315,+3.993077E+01
1020325,+4.948462E+01
1020335,+6.051923E+01
1020345,+7.155385E+01
1020355,+8.175769E+01
1020365,+8.885769E+01
1020375,+9.000385E+01
1020385,+8.814231E+01
1020395,+8.390769E+01
1020405,+7.293077E+01
1020415,+5.838846E+01
1020425,+4.208077E+01
1020435,+2.437692E+01
1020445,+6.784615E+00
1020455,-1.033462E+01
1020465,-2.590769E+01
1020475,-3.688846E+01
1020485,-4.582692E+01
1020495,-5.240385E+01
1020505,-5.373846E+01
1020515,-5.236923E+01
1020525,-5.071154E+01
1020535,-5.005385E+01
1020545,-5.008846E+01
1020555,-4.923462E+01
1020565,-4.819231E+01
1020575,-4.670385E+01
1020585,-4.430769E+01
1020595,-4.257308E+01
1020605,-4.163846E+01
1020615,-4.081154E+01
1020625,-4.022692E+01
1020635,-3.931923E+01
1020645,-3.842692E+01
1020655,-3.856538E+01
1020665,-3.852308E+01
1020675,-3.863846E+01
1020685,-3.958077E+01
1020695,-4.088846E+01
1020705,-4.239231E+01
1020715,-4.388462E+01
1020725,-4.411923E+01
1020735,-4.280385E+01
1020745,-4.105000E+01
1020755,-3.884615E+01
1020765,-3.443462E+01
1020775,-2.861538E+01
1020785,-2.203462E+01
1020795,-1.523462E+01
1020805,-9.919231E+00
1020815,-5.942308E+00
1020825,-3.542308E+00
1020835,-3.657692E+00
1020845,-4.307692E+00
1020855,-5.280769E+00
1020865,-8.861538E+00
1020875,-1.410769E+01
1020885,-1.928077E+01
1020895,-2.416538E+01
1020905,-3.154615E+01
1020915,-3.276154E+01
1020925,-1.758846E+01
1020935,+1.284231E+01
1020945,+2.525385E+01
1020955,+2.126538E+01
1020965,+1.271154E+01
1020975,+8.957692E+00
1020985,+9.792308E+00
1020995,+1.035769E+01
1021005,+1.466154E+01
1021015,+1.312308E+01
1021025,-2.800000E+00
1021035,-3.216923E+01
1021045,-4.353077E+01
1021055,-3.753077E+01
1021065,-2.610000E+01
1021075,-1.892692E+01
1021085,-1.597692E+01
1021095,-1.253077E+01
1021105,-8.561538E+00
1021115,-3.234615E+00
1021125,+2.826923E+00
1021135,+9.115385E+00
1021145,+1.645000E+01
1021155,+2.546923E+01
1021165,+3.474231E+01
1021175,+4.434231E+01
1021185,+5.365769E+01
1021195,+6.403077E+01
1021205,+7.245769E+01
1021215,+7.753077E+01
1021225,+7.816538E+01
1021235,+7.374615E+01
1021245,+6.709231E+01
1021255,+5.692308E+01
1021265,+4.396154E+01
1021275,+2.954615E+01
1021285,+1.440769E+01
1021295,-1.496154E+00
1021305,-1.598846E+01
1021315,-2.774615E+01
1021325,-3.628077E+01
1021335,-4.027692E+01
1021345,-4.280769E+01
1021355,-4.412308E+01
1021365,-4.331538E+01
1021375,-4.094615E+01
1021385,-3.908462E+01
1021395,-3.863462E+01
1021405,-3.706154E+01
1021415,-3.443462E+01
1021425,-3.210000E+01
1021435,-3.077308E+01
1021445,-2.978462E+01
1021455,-2.891923E+01
1021465,-2.896538E+01
1021475,-3.025769E+01
1021485,-3.115385E+01
1021495,-3.127692E+01
1021505,-3.232308E+01
1021515,-3.325385E+01
1021525,-3.381154E+01
1021535,-3.386923E+01
1021545,-3.412692E+01
1021555,-3.370769E+01
1021565,-3.215000E+01
1021575,-2.995769E+01
1021585,-2.841923E+01
1021595,-2.704615E+01
1021605,-2.494231E+01
1021615,-2.236538E+01
1021625,-1.756538E+01
1021635,-1.206538E+01
1021645,-6.573077E+00
1021655,-4.911538E+00
1021665,-5.553846E+00
1021675,-7.550000E+00
1021685,-8.980769E+00
1021695,-9.673077E+00
1021705,-1.148846E+01
1021715,-1.517308E+01
1021725,-2.098462E+01
1021735,-2.576538E+01
1021745,-3.252692E+01
1021755,-3.907308E+01
1021765,-2.641923E+01
1021775,+2.484615E+00
1021785,+3.351923E+01
1021795,+4.995769E+01
1021805,+4.142308E+01
1021815,+3.629231E+01
1021825,+3.567308E+01
1021835,+3.438077E+01
1021845,+3.613846E+01
1021855,+4.143846E+01
1021865,+2.919615E+01
1021875,+1.842308E+00
1021885,-2.658462E+01
1021895,-4.022308E+01
1021905,-2.819615E+01
1021915,-1.861923E+01
1021925,-1.315385E+01
1021935,-8.142308E+00
1021945,-3.419231E+00
1021955,+1.700000E+00
1021965,+7.842308E+00
1021975,+1.473077E+01
1021985,+2.170385E+01
1021995,+2.881923E+01
1022005,+3.672692E+01
1022015,+4.599231E+01
1022025,+5.514231E+01
1022035,+6.458462E+01
1022045,+7.381154E+01
1022055,+7.948462E+01
1022065,+8.152308E+01
1022075,+7.998846E+01
1022085,+7.375769E+01
1022095,+6.529231E+01
1022105,+5.466538E+01
1022115,+4.163846E+01
1022125,+2.713846E+01
1022135,+1.187692E+01
1022145,-3.111538E+00
1022155,-1.468846E+01
1022165,-2.391154E+01
1022175,-3.050385E+01
1022185,-3.332692E+01
1022195,-3.498462E+01
1022205,-3.577308E+01
1022215,-3.602308E+01
1022225,-3.562308E+01
1022235,-3.475000E+01
1022245,-3.394615E+01
1022255,-3.400000E+01
1022265,-3.398462E+01
1022275,-3.344231E+01
1022285,-3.263846E+01
1022295,-3.149615E+01
1022305,-3.083846E+01
1022315,-3.011154E+01
1022325,-2.900000E+01
1022335,-2.770000E+01
1022345,-2.660000E+01
1022355,-2.555385E+01
1022365,-2.448462E+01
1022375,-2.316923E+01
1022385,-2.182692E+01
1022395,-2.074231E+01
1022405,-1.987692E+01
1022415,-1.964615E+01
1022425,-1.945769E+01
1022435,-1.897308E+01
1022445,-1.715000E+01
1022455,-1.431154E+01
1022465,-1.048462E+01
1022475,-6.492308E+00
1022485,-2.676923E+00
1022495,+7.346154E-01
1022505,+3.865385E+00
1022515,+4.411538E+00
1022525,+4.203846E+00
1022535,+3.276923E+00
1022545,+6.692308E-01
1022555,-3.023077E+00
1022565,-7.296154E+00
1022575,-1.147692E+01
1022585,-1.566923E+01
1022595,-2.257692E+01
1022605,-3.018077E+01
1022615,-2.663077E+01
1022625,+8.192308E+00
1022635,+3.716154E+01
1022645,+4.630000E+01
1022655,+3.684231E+01
1022665,+3.308462E+01
1022675,+3.275000E+01
1022685,+3.276538E+01
1022695,+3.658462E+01
1022705,+4.250769E+01
1022715,+4.084231E+01
1022725,+8.580769E+00
1022735,-1.762308E+01
1022745,-2.316923E+01
1022755,-9.153846E+00
1022765,-7.923077E-01
1022775,+3.223077E+00
1022785,+6.911538E+00
1022795,+1.082692E+01
1022805,+1.650000E+01
1022815,+2.263462E+01
1022825,+2.908462E+01
1022835,+3.646923E+01
1022845,+4.518077E+01
1022855,+5.473846E+01
1022865,+6.471154E+01
1022875,+7.590000E+01
1022885,+8.719231E+01
1022895,+9.739615E+01
1022905,+1.014654E+02
1022915,+1.016962E+02
1022925,+9.893077E+01
1022935,+9.307692E+01
1022945,+8.238846E+01
1022955,+6.906154E+01
1022965,+5.427308E+01
1022975,+3.786154E+01
1022985,+2.067308E+01
1022995,+3.846154E+00
1023005,-9.211538E+00
1023015,-1.884615E+01
1023025,-2.510769E+01
1023035,-2.945385E+01
1023045,-3.218846E+01
1023055,-3.376923E+01
1023065,-3.347308E+01
1023075,-3.218077E+01
1023085,-3.170385E+01
1023095,-3.141923E+01
1023105,-3.010000E+01
1023115,-2.891154E+01
1023125,-2.989615E+01
1023135,-3.065385E+01
1023145,-2.955769E+01
1023155,-2.848462E+01
1023165,-2.822308E+01
1023175,-2.826923E+01
1023185,-2.756154E+01
1023195,-2.642308E+01
1023205,-2.530769E+01
1023215,-2.426154E+01
1023225,-2.252308E+01
1023235,-2.142308E+01
1023245,-2.031538E+01
1023255,-1.886154E+01
1023265,-1.699615E+01
1023275,-1.473846E+01
1023285,-1.156923E+01
1023295,-8.111538E+00
1023305,-4.015385E+00
1023315,-2.269231E-01
1023325,+2.776923E+00
1023335,+3.103846E+00
1023345,+2.646154E+00
1023355,+1.973077E+00
1023365,+5.269231E-01
1023375,-2.607692E+00
1023385,-6.853846E+00
1023395,-1.149231E+01
1023405,-1.609615E+01
1023415,-2.246923E+01
1023425,-2.939615E+01
1023435,-2.737308E+01
1023445,+2.815385E+00
1023455,+2.880769E+01
1023465,+3.643462E+01
1023475,+2.867308E+01
1023485,+2.255385E+01
1023495,+2.095385E+01
1023505,+1.956923E+01
1023515,+2.138462E+01
1023525,+2.490385E+01
1023535,+2.275769E+01
1023545,-6.723077E+00
1023555,-3.073462E+01
1023565,-3.590769E+01
1023575,-2.415385E+01
1023585,-1.270769E+01
1023595,-5.780769E+00
1023605,+1.846154E-01
1023615,+5.626923E+00
1023625,+1.184615E+01
1023635,+1.844231E+01
1023645,+2.495000E+01
1023655,+3.143846E+01
1023665,+3.894615E+01
1023675,+4.765385E+01
1023685,+5.670385E+01
1023695,+6.636154E+01
1023705,+7.560769E+01
1023715,+8.377692E+01
1023725,+9.013846E+01
1023735,+9.088077E+01
1023745,+8.803846E+01
1023755,+8.159615E+01
1023765,+7.153846E+01
1023775,+5.830000E+01
1023785,+4.248846E+01
1023795,+2.530769E+01
1023805,+7.761538E+00
1023815,-9.665385E+00
1023825,-2.613846E+01
1023835,-3.757308E+01
1023845,-4.472692E+01
1023855,-4.860769E+01
1023865,-5.028077E+01
1023875,-5.095385E+01
1023885,-4.955769E+01
1023895,-4.715000E+01
1023905,-4.589231E+01
1023915,-4.510769E+01
1023925,-4.374615E+01
1023935,-4.159231E+01
1023945,-4.049231E+01
1023955,-4.079231E+01
1023965,-4.127308E+01
1023975,-4.097692E+01
1023985,-4.110385E+01
1023995,-4.182308E+01
1024005,-4.154231E+01
1024015,-4.087692E+01
1024025,-4.002308E+01
1024035,-3.912308E+01
1024045,-3.786154E+01
1024055,-3.595385E+01
1024065,-3.455769E+01
1024075,-3.408846E+01
1024085,-3.316923E+01
1024095,-3.081923E+01
1024105,-2.697692E+01
1024115,-2.208077E+01
1024125,-1.683462E+01
1024135,-1.175000E+01
1024145,-7.161538E+00
1024155,-5.715385E+00
1024165,-4.884615E+00
1024175,-3.669231E+00
1024185,-3.280769E+00
1024195,-5.703846E+00
1024205,-9.773077E+00
1024215,-1.412692E+01
1024225,-1.812308E+01
1024235,-2.342308E+01
1024245,-3.251538E+01
1024255,-3.877692E+01
1024265,-1.498077E+01
1024275,+1.701154E+01
1024285,+3.846923E+01
1024295,+4.191923E+01
1024305,+3.417308E+01
1024315,+3.171923E+01
1024325,+3.093462E+01
1024335,+3.135000E+01
1024345,+3.598846E+01
1024355,+4.068077E+01
1024365,+1.656538E+01
1024375,-1.445000E+01
1024385,-3.378846E+01
1024395,-3.296538E+01
1024405,-2.010769E+01
1024415,-1.349231E+01
1024425,-1.011154E+01
1024435,-6.907692E+00
1024445,-1.988462E+00
1024455,+3.765385E+00
1024465,+9.946154E+00
1024475,+1.593846E+01
1024485,+2.331154E+01
1024495,+3.122308E+01
1024505,+3.950000E+01
1024515,+4.950769E+01
1024525,+6.026538E+01
1024535,+7.042692E+01
1024545,+7.709615E+01
1024555,+7.951538E+01
1024565,+7.955000E+01
1024575,+7.669615E+01
1024585,+6.806923E+01
1024595,+5.755385E+01
1024605,+4.570000E+01
1024615,+3.175385E+01
1024625,+1.586538E+01
1024635,+4.500000E-01
1024645,-1.364615E+01
1024655,-2.428077E+01
1024665,-3.226154E+01
1024675,-3.790769E+01
1024685,-4.069231E+01
1024695,-4.358077E+01
1024705,-4.565769E+01
1024715,-4.648846E+01
1024725,-4.552692E+01
1024735,-4.395000E+01
1024745,-4.183462E+01
1024755,-3.941538E+01
1024765,-3.840769E+01
1024775,-3.783077E+01
1024785,-3.660385E+01
1024795,-3.438846E+01
1024805,-3.266923E+01
1024815,-3.140385E+01
1024825,-3.035000E+01
1024835,-2.950769E+01
1024845,-2.868077E+01
1024855,-2.855769E+01
1024865,-2.864615E+01
1024875,-2.806538E+01
1024885,-2.687692E+01
1024895,-2.546923E+01
1024905,-2.510385E+01
1024915,-2.492308E+01
1024925,-2.360385E+01
1024935,-2.063077E+01
1024945,-1.576154E+01
1024955,-1.065769E+01
1024965,-5.042308E+00
1024975,-3.961538E-01
1024985,+1.269231E-01
1024995,-1.234615E+00
1025005,-2.361538E+00
1025015,-2.846154E+00
1025025,-3.665385E+00
1025035,-6.869231E+00
1025045,-1.356923E+01
1025055,-1.891923E+01
1025065,-2.486154E+01
1025075,-3.295769E+01
1025085,-2.429615E+01
1025095,+1.688462E+00
1025105,+3.347692E+01
1025115,+5.281538E+01
1025125,+4.406538E+01
1025135,+3.740385E+01
1025145,+3.653462E+01
1025155,+3.542692E+01
1025165,+3.534231E+01
1025175,+3.830385E+01
1025185,+2.830000E+01
1025195,+4.826923E+00
1025205,-2.266923E+01
1025215,-3.801923E+01
1025225,-2.650000E+01
1025235,-1.686923E+01
1025245,-1.139231E+01
1025255,-6.142308E+00
1025265,+2.269231E-01
1025275,+6.596154E+00
1025285,+1.299615E+01
1025295,+1.777692E+01
1025305,+2.276923E+01
1025315,+2.839231E+01
1025325,+3.522308E+01
1025335,+4.391538E+01
1025345,+5.317308E+01
1025355,+6.281154E+01
1025365,+7.173077E+01
1025375,+7.711154E+01
1025385,+7.915000E+01
1025395,+7.802308E+01
1025405,+7.255385E+01
1025415,+6.495385E+01
1025425,+5.518462E+01
1025435,+4.255769E+01
1025445,+2.849231E+01
1025455,+1.317308E+01
1025465,-3.623077E+00
1025475,-1.803846E+01
1025485,-2.860769E+01
1025495,-3.614231E+01
1025505,-4.071154E+01
1025515,-4.392308E+01
1025525,-4.491538E+01
1025535,-4.413077E+01
1025545,-4.328077E+01
1025555,-4.350385E+01
1025565,-4.269231E+01
1025575,-4.048846E+01
1025585,-3.895769E+01
1025595,-3.842308E+01
1025605,-3.806923E+01
1025615,-3.792692E+01
1025625,-3.820769E+01
1025635,-3.852308E+01
1025645,-3.829615E+01
1025655,-3.716923E+01
1025665,-3.646538E+01
1025675,-3.647308E+01
1025685,-3.672692E+01
1025695,-3.684231E+01
1025705,-3.675385E+01
1025715,-3.615385E+01
1025725,-3.522308E+01
1025735,-3.394231E+01
1025745,-3.300000E+01
1025755,-3.131538E+01
1025765,-2.886923E+01
1025775,-2.652308E+01
1025785,-2.352308E+01
1025795,-1.848077E+01
1025805,-1.197692E+01
1025815,-6.788462E+00
1025825,-3.653846E+00
1025835,-3.476923E+00
1025845,-3.788462E+00
1025855,-5.088462E+00
1025865,-7.346154E+00
1025875,-9.315385E+00
1025885,-1.196923E+01
1025895,-1.636923E+01
1025905,-2.063846E+01
1025915,-2.486538E+01
1025925,-3.112692E+01
1025935,-3.721154E+01
1025945,-1.774615E+01
1025955,+1.503077E+01
1025965,+4.368462E+01
1025975,+5.427308E+01
1025985,+4.663077E+01
1025995,+4.416538E+01
1026005,+4.398846E+01
1026015,+4.368077E+01
1026025,+4.666923E+01
1026035,+5.243462E+01
1026045,+3.455385E+01
1026055,+4.515385E+00
1026065,-2.132692E+01
1026075,-2.925000E+01
1026085,-1.751923E+01
1026095,-1.030000E+01
1026105,-6.057692E+00
1026115,+9.230769E-02
1026125,+6.876923E+00
1026135,+1.287692E+01
1026145,+1.808462E+01
1026155,+2.473077E+01
1026165,+3.260385E+01
1026175,+4.177692E+01
1026185,+5.072308E+01
1026195,+5.973462E+01
1026205,+6.835769E+01
1026215,+7.679615E+01
1026225,+8.469615E+01
1026235,+8.915000E+01
1026245,+8.969615E+01
1026255,+8.494231E+01
1026265,+7.576154E+01
1026275,+6.450769E+01
1026285,+5.098846E+01
1026295,+3.613846E+01
1026305,+2.065000E+01
1026315,+4.576923E+00
1026325,-1.168077E+01
1026335,-2.458077E+01
1026345,-3.411923E+01
1026355,-4.029615E+01
1026365,-4.268846E+01
1026375,-4.351154E+01
1026385,-4.277692E+01
1026395,-4.092692E+01
1026405,-3.905000E+01
1026415,-3.740769E+01
1026425,-3.555385E+01
1026435,-3.347692E+01
1026445,-3.181154E+01
1026455,-3.001923E+01
1026465,-2.823462E+01
1026475,-2.757308E+01
1026485,-2.843462E+01
1026495,-2.873846E+01
1026505,-2.795000E+01
1026515,-2.806154E+01
1026525,-2.809615E+01
1026535,-2.785769E+01
1026545,-2.750000E+01
1026555,-2.723462E+01
1026565,-2.670385E+01
1026575,-2.556923E+01
1026585,-2.386154E+01
1026595,-2.274231E+01
1026605,-2.197692E+01
1026615,-2.018077E+01
1026625,-1.891154E+01
1026635,-1.766538E+01
1026645,-1.556538E+01
1026655,-1.165769E+01
1026665,-6.903846E+00
1026675,-1.769231E+00
1026685,+2.969231E+00
1026695,+4.676923E+00
1026705,+5.142308E+00
1026715,+4.946154E+00
1026725,+4.253846E+00
1026735,+2.842308E+00
1026745,+1.050000E+00
1026755,-2.819231E+00
1026765,-7.950000E+00
1026775,-1.235769E+01
1026785,-1.569615E+01
1026795,-1.865000E+01
1026805,-1.917308E+01
1026815,-3.115385E+00
1026825,+2.938846E+01
1026835,+4.419231E+01
1026845,+3.986923E+01
1026855,+2.921923E+01
1026865,+2.303462E+01
1026875,+2.271923E+01
1026885,+2.232308E+01
1026895,+2.457692E+01
1026905,+2.539615E+01
1026915,+1.055769E+01
1026925,-1.954615E+01
1026935,-3.084615E+01
1026945,-2.253077E+01
1026955,-8.153846E+00
1026965,+1.496154E+00
1026975,+4.676923E+00
1026985,+9.846154E+00
1026995,+1.526538E+01
1027005,+2.075769E+01
1027015,+2.741154E+01
1027025,+3.492692E+01
1027035,+4.231923E+01
1027045,+4.903846E+01
1027055,+5.838462E+01
1027065,+6.998846E+01
1027075,+8.227308E+01
1027085,+9.059615E+01
1027095,+9.669231E+01
1027105,+1.010731E+02
1027115,+1.021154E+02
1027125,+9.613462E+01
1027135,+8.651154E+01
1027145,+7.465385E+01
1027155,+5.979615E+01
1027165,+4.318077E+01
1027175,+2.481538E+01
1027185,+7.469231E+00
1027195,-7.403846E+00
1027205,-2.036538E+01
1027215,-3.123846E+01
1027225,-3.633846E+01
1027235,-3.802308E+01
1027245,-3.732692E+01
1027255,-3.519615E+01
1027265,-3.269615E+01
1027275,-3.092692E+01
1027285,-2.959231E+01
1027295,-2.930385E+01
1027305,-2.831923E+01
1027315,-2.734615E+01
1027325,-2.668462E+01
1027335,-2.662692E+01
1027345,-2.660000E+01
1027355,-2.696154E+01
1027365,-2.793077E+01
1027375,-2.828077E+01
1027385,-2.821154E+01
1027395,-2.813077E+01
1027405,-2.678077E+01
1027415,-2.506923E+01
1027425,-2.393077E+01
1027435,-2.369231E+01
1027445,-2.260769E+01
1027455,-2.158846E+01
1027465,-2.105769E+01
1027475,-1.994615E+01
1027485,-1.655000E+01
1027495,-1.208846E+01
1027505,-9.392308E+00
1027515,-6.553846E+00
1027525,-3.823077E+00
1027535,-1.657692E+00
1027545,-1.888462E+00
1027555,-3.038462E+00
1027565,-3.719231E+00
1027575,-4.634615E+00
1027585,-7.973077E+00
1027595,-1.260000E+01
1027605,-1.745000E+01
1027615,-2.190769E+01
1027625,-2.926923E+01
1027635,-3.418462E+01
1027645,-2.649231E+01
1027655,+4.000000E+00
1027665,+2.233077E+01
1027675,+2.153462E+01
1027685,+1.078846E+01
1027695,+7.353846E+00
1027705,+6.576923E+00
1027715,+6.069231E+00
1027725,+1.042308E+01
1027735,+1.418846E+01
1027745,+6.819231E+00
1027755,-2.190000E+01
1027765,-3.776923E+01
1027775,-3.491923E+01
1027785,-2.120769E+01
1027795,-1.330769E+01
1027805,-7.492308E+00
1027815,-3.023077E+00
1027825,+9.384615E-01
1027835,+6.784615E+00
1027845,+1.295000E+01
1027855,+1.891923E+01
1027865,+2.506154E+01
1027875,+3.446538E+01
1027885,+4.537692E+01
1027895,+5.676154E+01
1027905,+6.873846E+01
1027915,+8.028462E+01
1027925,+8.998077E+01
1027935,+9.531154E+01
1027945,+9.456154E+01
1027955,+9.081923E+01
1027965,+8.417308E+01
1027975,+7.343462E+01
1027985,+5.858077E+01
1027995,+4.098077E+01
1028005,+2.115769E+01
1028015,+1.711538E+00
1028025,-1.661538E+01
1028035,-3.248462E+01
1028045,-4.215769E+01
1028055,-4.846538E+01
1028065,-5.285385E+01
1028075,-5.580769E+01
1028085,-5.513462E+01
1028095,-5.309231E+01
1028105,-5.063846E+01
1028115,-4.802308E+01
1028125,-4.485385E+01
1028135,-4.224615E+01
1028145,-4.063462E+01
1028155,-3.897308E+01
1028165,-3.696154E+01
1028175,-3.473077E+01
1028185,-3.326154E+01
1028195,-3.284615E+01
1028205,-3.293462E+01
1028215,-3.311923E+01
1028225,-3.307308E+01
1028235,-3.250000E+01
1028245,-3.176923E+01
1028255,-3.253846E+01
1028265,-3.359231E+01
1028275,-3.414231E+01
1028285,-3.484231E+01
1028295,-3.517692E+01
1028305,-3.480769E+01
1028315,-3.316538E+01
1028325,-3.061923E+01
1028335,-2.626154E+01
1028345,-2.159231E+01
1028355,-1.652692E+01
1028365,-1.193077E+01
1028375,-1.002308E+01
1028385,-9.242308E+00
1028395,-8.507692E+00
1028405,-8.719231E+00
1028415,-1.050385E+01
1028425,-1.375385E+01
1028435,-1.883462E+01
1028445,-2.255769E+01
1028455,-2.593462E+01
1028465,-3.097692E+01
1028475,-3.394231E+01
1028485,-2.162308E+01
1028495,+7.450000E+00
1028505,+3.975000E+01
1028515,+3.911538E+01
1028525,+3.060385E+01
1028535,+2.480385E+01
1028545,+2.221538E+01
1028555,+2.091538E+01
1028565,+2.231154E+01
1028575,+2.417692E+01
1028585,+1.287692E+01
1028595,-1.440769E+01
1028605,-4.419615E+01
1028615,-4.096154E+01
1028625,-2.928846E+01
1028635,-1.980769E+01
1028645,-1.465000E+01
1028655,-1.018077E+01
1028665,-5.484615E+00
1028675,-6.500000E-01
1028685,+3.411538E+00
1028695,+9.096154E+00
1028705,+1.620769E+01
1028715,+2.475769E+01
1028725,+3.476154E+01
1028735,+4.512308E+01
1028745,+5.616923E+01
1028755,+6.691538E+01
1028765,+7.524231E+01
1028775,+8.085769E+01
1028785,+8.342308E+01
1028795,+8.162308E+01
1028805,+7.465769E+01
1028815,+6.498462E+01
1028825,+5.190385E+01
1028835,+3.683846E+01
1028845,+2.089231E+01
1028855,+4.300000E+00
1028865,-1.107308E+01
1028875,-2.384231E+01
1028885,-3.371538E+01
1028895,-4.115769E+01
1028905,-4.538846E+01
1028915,-4.818846E+01
1028925,-4.919231E+01
1028935,-4.818462E+01
1028945,-4.569231E+01
1028955,-4.370769E+01
1028965,-4.202692E+01
1028975,-4.018846E+01
1028985,-3.826923E+01
1028995,-3.628077E+01
1029005,-3.398077E+01
1029015,-3.235000E+01
1029025,-3.095385E+01
1029035,-3.045000E+01
1029045,-3.166923E+01
1029055,-3.289231E+01
1029065,-3.311538E+01
1029075,-3.336538E+01
1029085,-3.381923E+01
1029095,-3.474231E+01
1029105,-3.531923E+01
1029115,-3.467692E+01
1029125,-3.401154E+01
1029135,-3.442692E+01
1029145,-3.555385E+01
1029155,-3.486923E+01
1029165,-3.383077E+01
1029175,-3.339231E+01
1029185,-3.299615E+01
1029195,-2.932692E+01
1029205,-2.419615E+01
1029215,-1.857308E+01
1029225,-1.266154E+01
1029235,-6.384615E+00
1029245,-2.076923E-01
1029255,+3.630769E+00
1029265,+4.546154E+00
1029275,+4.380769E+00
1029285,+3.484615E+00
1029295,-2.307692E-01
1029305,-4.911538E+00
1029315,-1.016538E+01
1029325,-1.499231E+01
1029335,-2.027308E+01
1029345,-2.783846E+01
1029355,-3.339615E+01
1029365,-2.564615E+01
1029375,+6.553846E+00
1029385,+2.881154E+01
1029395,+3.218077E+01
1029405,+2.522692E+01
1029415,+2.408462E+01
1029425,+2.415385E+01
1029435,+2.393462E+01
1029445,+2.766154E+01
1029455,+3.150769E+01
1029465,+2.447308E+01
1029475,-6.492308E+00
1029485,-2.655000E+01
1029495,-2.699231E+01
1029505,-1.668462E+01
1029515,-1.200769E+01
1029525,-9.753846E+00
1029535,-6.084615E+00
1029545,-2.434615E+00
1029555,+2.242308E+00
1029565,+7.750000E+00
1029575,+1.474615E+01
1029585,+2.259231E+01
1029595,+3.031538E+01
1029605,+3.829231E+01
1029615,+4.744231E+01
1029625,+5.896923E+01
1029635,+6.999615E+01
1029645,+7.901154E+01
1029655,+8.203462E+01
1029665,+8.152308E+01
1029675,+7.748077E+01
1029685,+7.038846E+01
1029695,+5.976923E+01
1029705,+4.692308E+01
1029715,+3.231923E+01
1029725,+1.700769E+01
1029735,+1.700000E+00
1029745,-1.320769E+01
1029755,-2.420769E+01
1029765,-3.213846E+01
1029775,-3.821538E+01
1029785,-4.282692E+01
1029795,-4.415769E+01
1029805,-4.384231E+01
1029815,-4.383846E+01
1029825,-4.520385E+01
1029835,-4.466538E+01
1029845,-4.317692E+01
1029855,-4.202308E+01
1029865,-4.149231E+01
1029875,-3.932308E+01
1029885,-3.685385E+01
1029895,-3.511154E+01
1029905,-3.402308E+01
1029915,-3.237692E+01
1029925,-3.079231E+01
1029935,-3.103846E+01
1029945,-3.190000E+01
1029955,-3.218846E+01
1029965,-3.194615E+01
1029975,-3.235769E+01
1029985,-3.300769E+01
1029995,-3.356923E+01
1030005,-3.394231E+01
1030015,-3.443077E+01
1030025,-3.491923E+01
1030035,-3.459231E+01
1030045,-3.265769E+01
1030055,-3.025000E+01
1030065,-2.901923E+01
1030075,-2.875000E+01
1030085,-2.743077E+01
1030095,-2.503077E+01
1030105,-2.233462E+01
1030115,-1.940000E+01
1030125,-1.458077E+01
1030135,-8.911538E+00
1030145,-3.180769E+00
1030155,+1.200000E+00
1030165,+4.776923E+00
1030175,+7.400000E+00
1030185,+7.996154E+00
1030195,+6.676923E+00
1030205,+5.034615E+00
1030215,+3.173077E+00
1030225,-4.115385E-01
1030235,-5.438462E+00
1030245,-1.191538E+01
1030255,-1.758462E+01
1030265,-2.338462E+01
1030275,-3.027692E+01
1030285,-3.311154E+01
1030295,-2.133077E+01
1030305,+1.121154E+01
1030315,+3.045769E+01
1030325,+3.075000E+01
1030335,+2.448462E+01
1030345,+2.429231E+01
1030355,+2.586923E+01
1030365,+2.806154E+01
1030375,+3.296154E+01
1030385,+3.664231E+01
1030395,+2.762308E+01
1030405,-3.519231E+00
1030415,-2.157692E+01
1030425,-2.030769E+01
1030435,-1.170000E+01
1030445,-7.657692E+00
1030455,-4.650000E+00
1030465,+1.807692E-01
1030475,+5.823077E+00
1030485,+1.055000E+01
1030495,+1.560769E+01
1030505,+2.292692E+01
1030515,+3.156538E+01
1030525,+4.098077E+01
1030535,+5.100385E+01
1030545,+6.065000E+01
1030555,+7.036923E+01
1030565,+7.985000E+01
1030575,+8.819231E+01
1030585,+9.158462E+01
1030595,+9.118462E+01
1030605,+8.773846E+01
1030615,+8.126154E+01
1030625,+6.992692E+01
1030635,+5.637308E+01
1030645,+4.159615E+01
1030655,+2.541923E+01
1030665,+8.542308E+00
1030675,-7.934615E+00
1030685,-1.978077E+01
1030695,-2.860000E+01
1030705,-3.507692E+01
1030715,-3.953077E+01
1030725,-4.083462E+01
1030735,-4.142308E+01
1030745,-4.121154E+01
1030755,-4.013462E+01
1030765,-3.886538E+01
1030775,-3.725385E+01
1030785,-3.548462E+01
1030795,-3.393462E+01
1030805,-3.263846E+01
1030815,-3.179231E+01
1030825,-3.095769E+01
1030835,-3.001154E+01
1030845,-2.938462E+01
1030855,-2.921154E+01
1030865,-2.903077E+01
1030875,-2.898462E+01
1030885,-2.911923E+01
1030895,-2.932308E+01
1030905,-3.021923E+01
1030915,-3.061923E+01
1030925,-2.980000E+01
1030935,-2.818077E+01
1030945,-2.619231E+01
1030955,-2.426538E+01
1030965,-2.272308E+01
1030975,-2.160769E+01
1030985,-2.031923E+01
1030995,-1.868462E+01
1031005,-1.641538E+01
1031015,-1.481923E+01
1031025,-1.360385E+01
1031035,-1.295769E+01
1031045,-1.302308E+01
1031055,-1.249615E+01
1031065,-1.031923E+01
1031075,-6.869231E+00
1031085,-3.261538E+00
1031095,+7.692308E-02
1031105,+3.446154E+00
1031115,+6.507692E+00
1031125,+6.857692E+00
1031135,+6.134615E+00
1031145,+4.942308E+00
1031155,+3.123077E+00
1031165,+1.923077E-01
1031175,-4.142308E+00
1031185,-9.638462E+00
1031195,-1.304231E+01
1031205,-1.563462E+01
1031215,-1.986154E+01
1031225,-2.201923E+01
1031235,-7.650000E+00
1031245,+2.440769E+01
1031255,+5.810769E+01
1031265,+5.565000E+01
1031275,+4.559231E+01
1031285,+3.960769E+01
1031295,+3.656154E+01
1031305,+3.518846E+01
1031315,+3.667692E+01
1031325,+3.843077E+01
1031335,+2.495385E+01
1031345,-4.673077E+00
1031355,-3.448846E+01
1031365,-2.735385E+01
1031375,-1.293462E+01
1031385,-2.830769E+00
1031395,+2.034615E+00
1031405,+7.396154E+00
1031415,+1.373077E+01
1031425,+2.046923E+01
1031435,+2.687692E+01
1031445,+3.455385E+01
1031455,+4.202692E+01
1031465,+4.919615E+01
1031475,+5.841154E+01
1031485,+6.936923E+01
1031495,+8.141538E+01
1031505,+9.118462E+01
1031515,+9.814231E+01
1031525,+1.025846E+02
1031535,+1.042846E+02
1031545,+1.012423E+02
1031555,+9.232308E+01
1031565,+8.095769E+01
1031575,+6.685385E+01
1031585,+4.999615E+01
1031595,+3.151154E+01
1031605,+1.249615E+01
1031615,-4.615385E+00
1031625,-1.850000E+01
1031635,-2.928846E+01
1031645,-3.753077E+01
1031655,-4.238462E+01
1031665,-4.518462E+01
1031675,-4.588462E+01
1031685,-4.437692E+01
1031695,-4.300385E+01
1031705,-4.189615E+01
1031715,-4.109231E+01
1031725,-4.052308E+01
1031735,-4.043846E+01
1031745,-4.049231E+01
1031755,-3.905000E+01
1031765,-3.764231E+01
1031775,-3.773462E+01
1031785,-3.842692E+01
1031795,-3.791154E+01
1031805,-3.680769E+01
1031815,-3.628077E+01
1031825,-3.672308E+01
1031835,-3.710000E+01
1031845,-3.729615E+01
1031855,-3.761538E+01
1031865,-3.805769E+01
1031875,-3.710769E+01
1031885,-3.539615E+01
1031895,-3.411154E+01
1031905,-3.393846E+01
1031915,-3.321154E+01
1031925,-3.215769E+01
1031935,-3.095769E+01
1031945,-2.926923E+01
1031955,-2.740000E+01
1031965,-2.499231E+01
1031975,-2.098462E+01
1031985,-1.696538E+01
1031995,-1.303077E+01
1032005,-8.938462E+00
1032015,-7.769231E+00
1032025,-7.692308E+00
1032035,-7.630769E+00
1032045,-7.561538E+00
1032055,-8.719231E+00
1032065,-1.111923E+01
1032075,-1.613846E+01
1032085,-2.013462E+01
1032095,-2.335000E+01
1032105,-2.722692E+01
1032115,-3.146154E+01
1032125,-2.390769E+01
1032135,+2.615385E-01
1032145,+3.214615E+01
1032155,+3.630000E+01
1032165,+2.853077E+01
1032175,+2.144615E+01
1032185,+1.868462E+01
1032195,+1.776154E+01
1032205,+1.746154E+01
1032215,+2.037308E+01
1032225,+1.418462E+01
1032235,-8.107692E+00
1032245,-3.870769E+01
1032255,-4.105385E+01
1032265,-3.028846E+01
1032275,-1.900769E+01
1032285,-1.299615E+01
1032295,-9.311538E+00
1032305,-3.984615E+00
1032315,+1.934615E+00
1032325,+6.492308E+00
1032335,+1.216538E+01
1032345,+1.954231E+01
1032355,+2.866923E+01
1032365,+3.797692E+01
1032375,+4.835769E+01
1032385,+5.967308E+01
1032395,+7.157308E+01
1032405,+8.073462E+01
1032415,+8.712692E+01
1032425,+9.044231E+01
1032435,+8.917308E+01
1032445,+8.226538E+01
1032455,+7.276923E+01
1032465,+6.099615E+01
1032475,+4.429231E+01
1032485,+2.592692E+01
1032495,+7.511538E+00
1032505,-8.719231E+00
1032515,-2.309615E+01
1032525,-3.458077E+01
1032535,-4.325385E+01
1032545,-4.793077E+01
1032555,-5.064231E+01
1032565,-5.123846E+01
1032575,-4.897308E+01
1032585,-4.649231E+01
1032595,-4.425385E+01
1032605,-4.235385E+01
1032615,-4.063846E+01
1032625,-3.935769E+01
1032635,-3.789615E+01
1032645,-3.621154E+01
1032655,-3.479231E+01
1032665,-3.386538E+01
1032675,-3.307692E+01
1032685,-3.256154E+01
1032695,-3.286538E+01
1032705,-3.367692E+01
1032715,-3.441538E+01
1032725,-3.457308E+01
1032735,-3.462308E+01
1032745,-3.474231E+01
1032755,-3.538846E+01
1032765,-3.518077E+01
1032775,-3.421538E+01
1032785,-3.328077E+01
1032795,-3.270000E+01
1032805,-3.098077E+01
1032815,-2.906154E+01
1032825,-2.806538E+01
1032835,-2.670000E+01
1032845,-2.468462E+01
1032855,-2.256923E+01
1032865,-2.135385E+01
1032875,-1.845769E+01
1032885,-1.427692E+01
1032895,-9.076923E+00
1032905,-5.800000E+00
1032915,-3.173077E+00
1032925,-5.769231E-01
1032935,+7.961538E-01
1032945,+3.461538E-02
1032955,-1.342308E+00
1032965,-2.973077E+00
1032975,-7.050000E+00
1032985,-1.175769E+01
1032995,-1.627308E+01
1033005,-2.047308E+01
1033015,-2.771923E+01
1033025,-2.544615E+01
1033035,-5.780769E+00
1033045,+2.594615E+01
1033055,+3.293846E+01
1033065,+2.613846E+01
1033075,+1.835769E+01
1033085,+1.949231E+01
1033095,+1.967308E+01
1033105,+2.006538E+01
1033115,+2.394231E+01
1033125,+1.958077E+01
1033135,-1.423077E+00
1033145,-3.315769E+01
1033155,-3.890000E+01
1033165,-2.974615E+01
1033175,-1.847692E+01
1033185,-1.604231E+01
1033195,-1.201154E+01
1033205,-6.857692E+00
1033215,-1.223077E+00
1033225,+4.603846E+00
1033235,+1.116154E+01
1033245,+1.912308E+01
1033255,+2.790385E+01
1033265,+3.830769E+01
1033275,+4.848846E+01
1033285,+5.864615E+01
1033295,+6.775385E+01
1033305,+7.634615E+01
1033315,+8.369231E+01
1033325,+8.793462E+01
1033335,+8.562308E+01
1033345,+7.964615E+01
1033355,+7.059615E+01
1033365,+5.823462E+01
1033375,+4.345769E+01
1033385,+2.714231E+01
1033395,+1.018462E+01
1033405,-5.253846E+00
1033415,-1.922692E+01
1033425,-3.136923E+01
1033435,-3.820385E+01
1033445,-4.173077E+01
1033455,-4.363462E+01
1033465,-4.537308E+01
1033475,-4.517692E+01
1033485,-4.370769E+01
1033495,-4.223077E+01
1033505,-4.251538E+01
1033515,-4.250000E+01
1033525,-4.210769E+01
1033535,-4.175385E+01
1033545,-4.203077E+01
1033555,-4.184231E+01
1033565,-4.120385E+01
1033575,-4.073846E+01
1033585,-4.024231E+01
1033595,-3.978077E+01
1033605,-3.905000E+01
1033615,-3.858462E+01
1033625,-3.767308E+01
1033635,-3.646154E+01
1033645,-3.505769E+01
1033655,-3.410385E+01
1033665,-3.341538E+01
1033675,-3.293462E+01
1033685,-3.239615E+01
1033695,-3.108462E+01
1033705,-2.958077E+01
1033715,-2.841538E+01
1033725,-2.737692E+01
1033735,-2.623846E+01
1033745,-2.582692E+01
1033755,-2.535385E+01
1033765,-2.168462E+01
1033775,-1.708462E+01
1033785,-1.263846E+01
1033795,-8.326923E+00
1033805,-4.138462E+00
1033815,-1.815385E+00
1033825,-1.753846E+00
1033835,-2.742308E+00
1033845,-3.107692E+00
1033855,-3.411538E+00
1033865,-6.569231E+00
1033875,-1.126923E+01
1033885,-1.510000E+01
1033895,-1.802692E+01
1033905,-2.539231E+01
1033915,-3.211154E+01
1033925,-2.785385E+01
1033935,-5.415385E+00
1033945,+2.018462E+01
1033955,+2.644231E+01
1033965,+1.852308E+01
1033975,+1.567692E+01
1033985,+1.525385E+01
1033995,+1.390769E+01
1034005,+1.721538E+01
1034015,+2.201923E+01
1034025,+1.800769E+01
1034035,-2.688462E+00
1034045,-2.580385E+01
1034055,-2.882692E+01
1034065,-1.760000E+01
1034075,-1.106154E+01
1034085,-7.400000E+00
1034095,-3.030769E+00
1034105,+1.961538E+00
1034115,+7.334615E+00
1034125,+1.409615E+01
1034135,+2.100000E+01
1034145,+2.795385E+01
1034155,+3.681923E+01
1034165,+4.667308E+01
1034175,+5.773462E+01
1034185,+6.940000E+01
1034195,+8.080385E+01
1034205,+9.037308E+01
1034215,+9.730000E+01
1034225,+9.715769E+01
1034235,+9.411538E+01
1034245,+8.782692E+01
1034255,+7.667692E+01
1034265,+6.254615E+01
1034275,+4.749615E+01
1034285,+3.124231E+01
1034295,+1.381923E+01
1034305,-3.150000E+00
1034315,-1.818077E+01
1034325,-2.729615E+01
1034335,-3.344231E+01
1034345,-3.743077E+01
1034355,-3.948846E+01
1034365,-3.958462E+01
1034375,-3.874231E+01
1034385,-3.712308E+01
1034395,-3.518077E+01
1034405,-3.341154E+01
1034415,-3.143846E+01
1034425,-2.993077E+01
1034435,-2.972308E+01
1034445,-2.888846E+01
1034455,-2.738462E+01
1034465,-2.602692E+01
1034475,-2.654231E+01
1034485,-2.755385E+01
1034495,-2.756154E+01
1034505,-2.613462E+01
1034515,-2.544615E+01
1034525,-2.530385E+01
1034535,-2.498846E+01
1034545,-2.504615E+01
1034555,-2.492308E+01
1034565,-2.388462E+01
1034575,-2.133846E+01
1034585,-1.896923E+01
1034595,-1.783846E+01
1034605,-1.770769E+01
1034615,-1.742692E+01
1034625,-1.691154E+01
1034635,-1.584615E+01
1034645,-1.478462E+01
1034655,-1.351538E+01
1034665,-1.192308E+01
1034675,-9.834615E+00
1034685,-6.842308E+00
1034695,-2.934615E+00
1034705,+3.923077E-01
1034715,+2.323077E+00
1034725,+2.561538E+00
1034735,+2.519231E+00
1034745,+1.796154E+00
1034755,-4.192308E-01
1034765,-3.342308E+00
1034775,-6.911538E+00
1034785,-1.062692E+01
1034795,-1.428462E+01
1034805,-2.155769E+01
1034815,-2.643846E+01
