+1.167900E+01,-1.365600E+01
+1.168900E+01,-1.366500E+01
+1.169900E+01,-1.365200E+01
+1.170900E+01,-1.366600E+01
+1.171900E+01,-1.366300E+01
+1.172900E+01,-1.365200E+01
+1.173900E+01,-1.366700E+01
+1.174900E+01,-1.365400E+01
+1.175900E+01,-1.365100E+01
+1.176900E+01,-1.367200E+01
+1.177900E+01,-1.365100E+01
+1.178900E+01,-1.366600E+01
+1.179900E+01,-1.366900E+01
+1.180900E+01,-1.364700E+01
+1.181900E+01,-1.366500E+01
+1.182900E+01,-1.365700E+01
+1.183900E+01,-1.365100E+01
+1.184900E+01,-1.367400E+01
+1.185900E+01,-1.365500E+01
+1.186900E+01,-1.367000E+01
+1.187900E+01,-1.366900E+01
+1.188900E+01,-1.365200E+01
+1.189900E+01,-1.367100E+01
+1.190900E+01,-1.365400E+01
+1.191900E+01,-1.365900E+01
+1.192900E+01,-1.366800E+01
+1.193900E+01,-1.366800E+01
+1.194900E+01,-1.365500E+01
+1.195900E+01,-1.367000E+01
+1.196900E+01,-1.366200E+01
+1.197900E+01,-1.366200E+01
+1.198900E+01,-1.366400E+01
+1.199900E+01,-1.366000E+01
+1.200900E+01,-1.366500E+01
+1.201900E+01,-1.366200E+01
+1.202900E+01,-1.366100E+01
+1.203900E+01,-1.366500E+01
+1.204900E+01,-1.365900E+01
+1.205900E+01,-1.366500E+01
+1.206900E+01,-1.366200E+01
+1.207900E+01,-1.366500E+01
+1.208900E+01,-1.366500E+01
+1.209900E+01,-1.366400E+01
+1.210900E+01,-1.366400E+01
+1.211900E+01,-1.366300E+01
+1.212900E+01,-1.366300E+01
+1.213900E+01,-1.366400E+01
+1.214900E+01,-1.366500E+01
+1.215900E+01,-1.366200E+01
+1.216900E+01,-1.366100E+01
+1.217900E+01,-1.366400E+01
+1.218900E+01,-1.366400E+01
+1.219900E+01,-1.366600E+01
+1.220900E+01,-1.366600E+01
+1.221900E+01,-1.366400E+01
+1.222900E+01,-1.366500E+01
+1.223900E+01,-1.366600E+01
+1.224900E+01,-1.366200E+01
+1.225900E+01,-1.366500E+01
+1.226900E+01,-1.366600E+01
+1.227900E+01,-1.366300E+01
+1.228900E+01,-1.366300E+01
+1.229900E+01,-1.366200E+01
+1.230900E+01,-1.366400E+01
+1.231900E+01,-1.366500E+01
+1.232900E+01,-1.366500E+01
+1.233900E+01,-1.366300E+01
+1.234900E+01,-1.366300E+01
+1.235900E+01,-1.366200E+01
+1.236900E+01,-1.366200E+01
+1.237900E+01,-1.366300E+01
+1.238900E+01,-1.366300E+01
+1.239900E+01,-1.366700E+01
+1.240900E+01,-1.366200E+01
+1.241900E+01,-1.366500E+01
+1.242900E+01,-1.366400E+01
+1.243900E+01,-1.366300E+01
+1.244900E+01,-1.366800E+01
+1.245900E+01,-1.366700E+01
+1.246900E+01,-1.366900E+01
+1.247900E+01,-1.366300E+01
+1.248900E+01,-1.366300E+01
+1.249900E+01,-1.366100E+01
+1.250900E+01,-1.366500E+01
+1.251900E+01,-1.366400E+01
+1.252900E+01,-1.366200E+01
+1.253900E+01,-1.366300E+01
+1.254900E+01,-1.366900E+01
+1.255900E+01,-1.367300E+01
+1.256900E+01,-1.367300E+01
+1.257900E+01,-1.367200E+01
+1.258900E+01,-1.366700E+01
+1.259900E+01,-1.366700E+01
+1.260900E+01,-1.366800E+01
+1.261900E+01,-1.366700E+01
+1.262900E+01,-1.366400E+01
+1.263900E+01,-1.366300E+01
+1.264900E+01,-1.366500E+01
+1.265900E+01,-1.366300E+01
+1.266900E+01,-1.366800E+01
+1.267900E+01,-1.366400E+01
+1.268900E+01,-1.366200E+01
+1.269900E+01,-1.366700E+01
+1.270900E+01,-1.366900E+01
+1.271900E+01,-1.366800E+01
+1.272900E+01,-1.366500E+01
+1.273900E+01,-1.367300E+01
+1.274900E+01,-1.365600E+01
+1.275900E+01,-1.367800E+01
+1.276900E+01,-1.367200E+01
+1.277900E+01,-1.366400E+01
+1.278900E+01,-1.367900E+01
+1.279900E+01,-1.365700E+01
+1.280900E+01,-1.367200E+01
+1.281900E+01,-1.367800E+01
+1.282900E+01,-1.365900E+01
+1.283900E+01,-1.367000E+01
+1.284900E+01,-1.367200E+01
+1.285900E+01,-1.365200E+01
+1.286900E+01,-1.367400E+01
+1.287900E+01,-1.366600E+01
+1.288900E+01,-1.366000E+01
+1.289900E+01,-1.368000E+01
+1.290900E+01,-1.365700E+01
+1.291900E+01,-1.366200E+01
+1.292900E+01,-1.367600E+01
+1.293900E+01,-1.365300E+01
+1.294900E+01,-1.367400E+01
+1.295900E+01,-1.367500E+01
+1.296900E+01,-1.366700E+01
+1.297900E+01,-1.367800E+01
+1.298900E+01,-1.366400E+01
+1.299900E+01,-1.367200E+01
+1.300900E+01,-1.367400E+01
+1.301900E+01,-1.366300E+01
+1.302900E+01,-1.367400E+01
+1.303900E+01,-1.366700E+01
+1.304900E+01,-1.367100E+01
+1.305900E+01,-1.366800E+01
+1.306900E+01,-1.366800E+01
+1.307900E+01,-1.366600E+01
+1.308900E+01,-1.366800E+01
+1.309900E+01,-1.366700E+01
+1.310900E+01,-1.366700E+01
+1.311900E+01,-1.366900E+01
+1.312900E+01,-1.366800E+01
+1.313900E+01,-1.366800E+01
+1.314900E+01,-1.366700E+01
+1.315900E+01,-1.367000E+01
+1.316900E+01,-1.367200E+01
+1.317900E+01,-1.366900E+01
+1.318900E+01,-1.367200E+01
+1.319900E+01,-1.366800E+01
+1.320900E+01,-1.366900E+01
+1.321900E+01,-1.366900E+01
+1.322900E+01,-1.366800E+01
+1.323900E+01,-1.367200E+01
+1.324900E+01,-1.367200E+01
+1.325900E+01,-1.367000E+01
+1.326900E+01,-1.367000E+01
+1.327900E+01,-1.367000E+01
+1.328900E+01,-1.367200E+01
+1.329900E+01,-1.367000E+01
+1.330900E+01,-1.367000E+01
+1.331900E+01,-1.367100E+01
+1.332900E+01,-1.367100E+01
+1.333900E+01,-1.367100E+01
+1.334900E+01,-1.367200E+01
+1.335900E+01,-1.367200E+01
+1.336900E+01,-1.367100E+01
+1.337900E+01,-1.367200E+01
+1.338900E+01,-1.367200E+01
+1.339900E+01,-1.367200E+01
+1.340900E+01,-1.367100E+01
+1.341900E+01,-1.367300E+01
+1.342900E+01,-1.367400E+01
+1.343900E+01,-1.367200E+01
+1.344900E+01,-1.367200E+01
+1.345900E+01,-1.367300E+01
+1.346900E+01,-1.367300E+01
+1.347900E+01,-1.367400E+01
+1.348900E+01,-1.367500E+01
+1.349900E+01,-1.367200E+01
+1.350900E+01,-1.367100E+01
+1.351900E+01,-1.367100E+01
+1.352900E+01,-1.367200E+01
+1.353900E+01,-1.367200E+01
+1.354900E+01,-1.367400E+01
+1.355900E+01,-1.367500E+01
+1.356900E+01,-1.367200E+01
+1.357900E+01,-1.367300E+01
+1.358900E+01,-1.367800E+01
+1.359900E+01,-1.367500E+01
+1.360900E+01,-1.367400E+01
+1.361900E+01,-1.367700E+01
+1.362900E+01,-1.367600E+01
+1.363900E+01,-1.367500E+01
+1.364900E+01,-1.367600E+01
+1.365900E+01,-1.367600E+01
+1.366900E+01,-1.367800E+01
+1.367900E+01,-1.367800E+01
+1.368900E+01,-1.367900E+01
+1.369900E+01,-1.367800E+01
+1.370900E+01,-1.367600E+01
+1.371900E+01,-1.367800E+01
+1.372900E+01,-1.368000E+01
+1.373900E+01,-1.367300E+01
+1.374900E+01,-1.368300E+01
+1.375900E+01,-1.367700E+01
+1.376900E+01,-1.367700E+01
+1.377900E+01,-1.368300E+01
+1.378900E+01,-1.367200E+01
+1.379900E+01,-1.368300E+01
+1.380900E+01,-1.367200E+01
+1.381900E+01,-1.367400E+01
+1.382900E+01,-1.368400E+01
+1.383900E+01,-1.366700E+01
+1.384900E+01,-1.369000E+01
+1.385900E+01,-1.367800E+01
+1.386900E+01,-1.368100E+01
+1.387900E+01,-1.369200E+01
+1.388900E+01,-1.367200E+01
+1.389900E+01,-1.369300E+01
+1.390900E+01,-1.366700E+01
+1.391900E+01,-1.367800E+01
+1.392900E+01,-1.368000E+01
+1.393900E+01,-1.366600E+01
+1.394900E+01,-1.369400E+01
+1.395900E+01,-1.367100E+01
+1.396900E+01,-1.368500E+01
+1.397900E+01,-1.368500E+01
+1.398900E+01,-1.367500E+01
+1.399900E+01,-1.369400E+01
+1.400900E+01,-1.367100E+01
+1.401900E+01,-1.368600E+01
+1.402900E+01,-1.368200E+01
+1.403900E+01,-1.367800E+01
+1.404900E+01,-1.368600E+01
+1.405900E+01,-1.367700E+01
+1.406900E+01,-1.368900E+01
+1.407900E+01,-1.368100E+01
+1.408900E+01,-1.368600E+01
+1.409900E+01,-1.368600E+01
+1.410900E+01,-1.368300E+01
+1.411900E+01,-1.369400E+01
+1.412900E+01,-1.368700E+01
+1.413900E+01,-1.368200E+01
+1.414900E+01,-1.368800E+01
+1.415900E+01,-1.369300E+01
+1.416900E+01,-1.368300E+01
+1.417900E+01,-1.367500E+01
+1.418900E+01,-1.368100E+01
+1.419900E+01,-1.368800E+01
+1.420900E+01,-1.368700E+01
+1.421900E+01,-1.367800E+01
+1.422900E+01,-1.368400E+01
+1.423900E+01,-1.369500E+01
+1.424900E+01,-1.368700E+01
+1.425900E+01,-1.368200E+01
+1.426900E+01,-1.367300E+01
+1.427900E+01,-1.369100E+01
+1.428900E+01,-1.368500E+01
+1.429900E+01,-1.368100E+01
+1.430900E+01,-1.368800E+01
+1.431900E+01,-1.369000E+01
+1.432900E+01,-1.368300E+01
+1.433900E+01,-1.368000E+01
+1.434900E+01,-1.368800E+01
+1.435900E+01,-1.369200E+01
+1.436900E+01,-1.368300E+01
+1.437900E+01,-1.368600E+01
+1.438900E+01,-1.367800E+01
+1.439900E+01,-1.368900E+01
+1.440900E+01,-1.368400E+01
+1.441900E+01,-1.368300E+01
+1.442900E+01,-1.368800E+01
+1.443900E+01,-1.369300E+01
+1.444900E+01,-1.368700E+01
+1.445900E+01,-1.368700E+01
+1.446900E+01,-1.367900E+01
+1.447900E+01,-1.368800E+01
+1.448900E+01,-1.368600E+01
+1.449900E+01,-1.368800E+01
+1.450900E+01,-1.368200E+01
+1.451900E+01,-1.368400E+01
+1.452900E+01,-1.369100E+01
+1.453900E+01,-1.368900E+01
+1.454900E+01,-1.368800E+01
+1.455900E+01,-1.368800E+01
+1.456900E+01,-1.369100E+01
+1.457900E+01,-1.368700E+01
+1.458900E+01,-1.368900E+01
+1.459900E+01,-1.369200E+01
+1.460900E+01,-1.369300E+01
+1.461900E+01,-1.369000E+01
+1.462900E+01,-1.368900E+01
+1.463900E+01,-1.369000E+01
+1.464900E+01,-1.368900E+01
+1.465900E+01,-1.369100E+01
+1.466900E+01,-1.368900E+01
+1.467900E+01,-1.368800E+01
+1.468900E+01,-1.369100E+01
+1.469900E+01,-1.369100E+01
+1.470900E+01,-1.369300E+01
+1.471900E+01,-1.369300E+01
+1.472900E+01,-1.369200E+01
+1.473900E+01,-1.368900E+01
+1.474900E+01,-1.369000E+01
+1.475900E+01,-1.369100E+01
+1.476900E+01,-1.368800E+01
+1.477900E+01,-1.369200E+01
+1.478900E+01,-1.368700E+01
+1.479900E+01,-1.369300E+01
+1.480900E+01,-1.369400E+01
+1.481900E+01,-1.368900E+01
+1.482900E+01,-1.369800E+01
+1.483900E+01,-1.368400E+01
+1.484900E+01,-1.369300E+01
+1.485900E+01,-1.368800E+01
+1.486900E+01,-1.368100E+01
+1.487900E+01,-1.369900E+01
+1.488900E+01,-1.368300E+01
+1.489900E+01,-1.369900E+01
+1.490900E+01,-1.370000E+01
+1.491900E+01,-1.367800E+01
+1.492900E+01,-1.369500E+01
+1.493900E+01,-1.368100E+01
+1.494900E+01,-1.367600E+01
+1.495900E+01,-1.370400E+01
+1.496900E+01,-1.368200E+01
+1.497900E+01,-1.368900E+01
+1.498900E+01,-1.370200E+01
+1.499900E+01,-1.367700E+01
+1.500900E+01,-1.369500E+01
+1.501900E+01,-1.368600E+01
+1.502900E+01,-1.368000E+01
+1.503900E+01,-1.370200E+01
+1.504900E+01,-1.368600E+01
+1.505900E+01,-1.369500E+01
+1.506900E+01,-1.370100E+01
+1.507900E+01,-1.368700E+01
+1.508900E+01,-1.369500E+01
+1.509900E+01,-1.369100E+01
+1.510900E+01,-1.368800E+01
+1.511900E+01,-1.369700E+01
+1.512900E+01,-1.369100E+01
+1.513900E+01,-1.369100E+01
+1.514900E+01,-1.369400E+01
+1.515900E+01,-1.369300E+01
+1.516900E+01,-1.369000E+01
+1.517900E+01,-1.369000E+01
+1.518900E+01,-1.369200E+01
+1.519900E+01,-1.369200E+01
+1.520900E+01,-1.369400E+01
+1.521900E+01,-1.369200E+01
+1.522900E+01,-1.369100E+01
+1.523900E+01,-1.369200E+01
+1.524900E+01,-1.369200E+01
+1.525900E+01,-1.369500E+01
+1.526900E+01,-1.369400E+01
+1.527900E+01,-1.369400E+01
+1.528900E+01,-1.369300E+01
+1.529900E+01,-1.369500E+01
+1.530900E+01,-1.369300E+01
+1.531900E+01,-1.369400E+01
+1.532900E+01,-1.369600E+01
+1.533900E+01,-1.369600E+01
+1.534900E+01,-1.369500E+01
+1.535900E+01,-1.369700E+01
+1.536900E+01,-1.369700E+01
+1.537900E+01,-1.369700E+01
+1.538900E+01,-1.369600E+01
+1.539900E+01,-1.369500E+01
+1.540900E+01,-1.369700E+01
+1.541900E+01,-1.369700E+01
+1.542900E+01,-1.369900E+01
+1.543900E+01,-1.369800E+01
+1.544900E+01,-1.369400E+01
+1.545900E+01,-1.369800E+01
+1.546900E+01,-1.369800E+01
+1.547900E+01,-1.369700E+01
+1.548900E+01,-1.369700E+01
+1.549900E+01,-1.369600E+01
+1.550900E+01,-1.369600E+01
+1.551900E+01,-1.370000E+01
+1.552900E+01,-1.369600E+01
+1.553900E+01,-1.369900E+01
+1.554900E+01,-1.369500E+01
+1.555900E+01,-1.369600E+01
+1.556900E+01,-1.369900E+01
+1.557900E+01,-1.370100E+01
+1.558900E+01,-1.369700E+01
+1.559900E+01,-1.369800E+01
+1.560900E+01,-1.369600E+01
+1.561900E+01,-1.369200E+01
+1.562900E+01,-1.369400E+01
+1.563900E+01,-1.369800E+01
+1.564900E+01,-1.370100E+01
+1.565900E+01,-1.369700E+01
+1.566900E+01,-1.369500E+01
+1.567900E+01,-1.369400E+01
+1.568900E+01,-1.369800E+01
+1.569900E+01,-1.369700E+01
+1.570900E+01,-1.370000E+01
+1.571900E+01,-1.369900E+01
+1.572900E+01,-1.369400E+01
+1.573900E+01,-1.369300E+01
+1.574900E+01,-1.368500E+01
+1.575900E+01,-1.369700E+01
+1.576900E+01,-1.370500E+01
+1.577900E+01,-1.370800E+01
+1.578900E+01,-1.369500E+01
+1.579900E+01,-1.370100E+01
+1.580900E+01,-1.370500E+01
+1.581900E+01,-1.370300E+01
+1.582900E+01,-1.370200E+01
+1.583900E+01,-1.369700E+01
+1.584900E+01,-1.368500E+01
+1.585900E+01,-1.370000E+01
+1.586900E+01,-1.369900E+01
+1.587900E+01,-1.371000E+01
+1.588900E+01,-1.369700E+01
+1.589900E+01,-1.367800E+01
+1.590900E+01,-1.370600E+01
+1.591900E+01,-1.369000E+01
+1.592900E+01,-1.368900E+01
+1.593900E+01,-1.371700E+01
+1.594900E+01,-1.369400E+01
+1.595900E+01,-1.372200E+01
+1.596900E+01,-1.370700E+01
+1.597900E+01,-1.368700E+01
+1.598900E+01,-1.371500E+01
+1.599900E+01,-1.369200E+01
+1.600900E+01,-1.370500E+01
+1.601900E+01,-1.369400E+01
+1.602900E+01,-1.368200E+01
+1.603900E+01,-1.371000E+01
+1.604900E+01,-1.369300E+01
+1.605900E+01,-1.371100E+01
+1.606900E+01,-1.370800E+01
+1.607900E+01,-1.369400E+01
+1.608900E+01,-1.370300E+01
+1.609900E+01,-1.369300E+01
+1.610900E+01,-1.369700E+01
+1.611900E+01,-1.370500E+01
+1.612900E+01,-1.368800E+01
+1.613900E+01,-1.370600E+01
+1.614900E+01,-1.370000E+01
+1.615900E+01,-1.370300E+01
+1.616900E+01,-1.370600E+01
+1.617900E+01,-1.370100E+01
+1.618900E+01,-1.370000E+01
+1.619900E+01,-1.370000E+01
+1.620900E+01,-1.370400E+01
+1.621900E+01,-1.370200E+01
+1.622900E+01,-1.369900E+01
+1.623900E+01,-1.369800E+01
+1.624900E+01,-1.370000E+01
+1.625900E+01,-1.370000E+01
+1.626900E+01,-1.370000E+01
+1.627900E+01,-1.370100E+01
+1.628900E+01,-1.369900E+01
+1.629900E+01,-1.369700E+01
+1.630900E+01,-1.370100E+01
+1.631900E+01,-1.369900E+01
+1.632900E+01,-1.369800E+01
+1.633900E+01,-1.370100E+01
+1.634900E+01,-1.370000E+01
+1.635900E+01,-1.369700E+01
+1.636900E+01,-1.369800E+01
+1.637900E+01,-1.369900E+01
+1.638900E+01,-1.369900E+01
+1.639900E+01,-1.370000E+01
+1.640900E+01,-1.370200E+01
+1.641900E+01,-1.370000E+01
+1.642900E+01,-1.370000E+01
+1.643900E+01,-1.370000E+01
+1.644900E+01,-1.370200E+01
+1.645900E+01,-1.370200E+01
+1.646900E+01,-1.370100E+01
+1.647900E+01,-1.370200E+01
+1.648900E+01,-1.370200E+01
+1.649900E+01,-1.370200E+01
+1.650900E+01,-1.370200E+01
+1.651900E+01,-1.370100E+01
+1.652900E+01,-1.370100E+01
+1.653900E+01,-1.370100E+01
+1.654900E+01,-1.370100E+01
+1.655900E+01,-1.370000E+01
+1.656900E+01,-1.370100E+01
+1.657900E+01,-1.370200E+01
+1.658900E+01,-1.370400E+01
+1.659900E+01,-1.370400E+01
+1.660900E+01,-1.370300E+01
+1.661900E+01,-1.370300E+01
+1.662900E+01,-1.370300E+01
+1.663900E+01,-1.370200E+01
+1.664900E+01,-1.370300E+01
+1.665900E+01,-1.370000E+01
+1.666900E+01,-1.370100E+01
+1.667900E+01,-1.370300E+01
+1.668900E+01,-1.370100E+01
+1.669900E+01,-1.369800E+01
+1.670900E+01,-1.370300E+01
+1.671900E+01,-1.370200E+01
+1.672900E+01,-1.370100E+01
+1.673900E+01,-1.370100E+01
+1.674900E+01,-1.370000E+01
+1.675900E+01,-1.370100E+01
+1.676900E+01,-1.370000E+01
+1.677900E+01,-1.370000E+01
+1.678900E+01,-1.369900E+01
+1.679900E+01,-1.370200E+01
+1.680900E+01,-1.370200E+01
+1.681900E+01,-1.370300E+01
+1.682900E+01,-1.370200E+01
+1.683900E+01,-1.370500E+01
+1.684900E+01,-1.370000E+01
+1.685900E+01,-1.370400E+01
+1.686900E+01,-1.370500E+01
+1.687900E+01,-1.369900E+01
+1.688900E+01,-1.370700E+01
+1.689900E+01,-1.369800E+01
+1.690900E+01,-1.370300E+01
+1.691900E+01,-1.370400E+01
+1.692900E+01,-1.369400E+01
+1.693900E+01,-1.371500E+01
+1.694900E+01,-1.369900E+01
+1.695900E+01,-1.370200E+01
+1.696900E+01,-1.371200E+01
+1.697900E+01,-1.369000E+01
+1.698900E+01,-1.370600E+01
+1.699900E+01,-1.370200E+01
+1.700900E+01,-1.369300E+01
+1.701900E+01,-1.371500E+01
+1.702900E+01,-1.369300E+01
+1.703900E+01,-1.371300E+01
+1.704900E+01,-1.370600E+01
+1.705900E+01,-1.369600E+01
+1.706900E+01,-1.371600E+01
+1.707900E+01,-1.369000E+01
+1.708900E+01,-1.370700E+01
+1.709900E+01,-1.369600E+01
+1.710900E+01,-1.369300E+01
+1.711900E+01,-1.370700E+01
+1.712900E+01,-1.369200E+01
+1.713900E+01,-1.371100E+01
+1.714900E+01,-1.370100E+01
+1.715900E+01,-1.370700E+01
+1.716900E+01,-1.370600E+01
+1.717900E+01,-1.370100E+01
+1.718900E+01,-1.371000E+01
+1.719900E+01,-1.369900E+01
+1.720900E+01,-1.370400E+01
+1.721900E+01,-1.370300E+01
+1.722900E+01,-1.370000E+01
+1.723900E+01,-1.370400E+01
+1.724900E+01,-1.370000E+01
+1.725900E+01,-1.370000E+01
+1.726900E+01,-1.370400E+01
+1.727900E+01,-1.370700E+01
+1.728900E+01,-1.370300E+01
+1.729900E+01,-1.369800E+01
+1.730900E+01,-1.369700E+01
+1.731900E+01,-1.370800E+01
+1.732900E+01,-1.369700E+01
+1.733900E+01,-1.369400E+01
+1.734900E+01,-1.369700E+01
+1.735900E+01,-1.370100E+01
+1.736900E+01,-1.371000E+01
+1.737900E+01,-1.369700E+01
+1.738900E+01,-1.371000E+01
+1.739900E+01,-1.369700E+01
+1.740900E+01,-1.370600E+01
+1.741900E+01,-1.370500E+01
+1.742900E+01,-1.370500E+01
+1.743900E+01,-1.369400E+01
+1.744900E+01,-1.369500E+01
+1.745900E+01,-1.370800E+01
+1.746900E+01,-1.370500E+01
+1.747900E+01,-1.369700E+01
+1.748900E+01,-1.369700E+01
+1.749900E+01,-1.370800E+01
+1.750900E+01,-1.371100E+01
+1.751900E+01,-1.369900E+01
+1.752900E+01,-1.370300E+01
+1.753900E+01,-1.370100E+01
+1.754900E+01,-1.370100E+01
+1.755900E+01,-1.370000E+01
+1.756900E+01,-1.370000E+01
+1.757900E+01,-1.370200E+01
+1.758900E+01,-1.369900E+01
+1.759900E+01,-1.370400E+01
+1.760900E+01,-1.370400E+01
+1.761900E+01,-1.369900E+01
+1.762900E+01,-1.370500E+01
+1.763900E+01,-1.370500E+01
+1.764900E+01,-1.370100E+01
+1.765900E+01,-1.369500E+01
+1.766900E+01,-1.369900E+01
+1.767900E+01,-1.369900E+01
+1.768900E+01,-1.370500E+01
+1.769900E+01,-1.370000E+01
+1.770900E+01,-1.370200E+01
+1.771900E+01,-1.370000E+01
+1.772900E+01,-1.369600E+01
+1.773900E+01,-1.369800E+01
+1.774900E+01,-1.370200E+01
+1.775900E+01,-1.370300E+01
+1.776900E+01,-1.370300E+01
+1.777900E+01,-1.369800E+01
+1.778900E+01,-1.369900E+01
+1.779900E+01,-1.370400E+01
+1.780900E+01,-1.370100E+01
+1.781900E+01,-1.370500E+01
+1.782900E+01,-1.370200E+01
+1.783900E+01,-1.370400E+01
+1.784900E+01,-1.370600E+01
+1.785900E+01,-1.371100E+01
+1.786900E+01,-1.370200E+01
+1.787900E+01,-1.370900E+01
+1.788900E+01,-1.370400E+01
+1.789900E+01,-1.370400E+01
+1.790900E+01,-1.371200E+01
+1.791900E+01,-1.370400E+01
+1.792900E+01,-1.371600E+01
+1.793900E+01,-1.370800E+01
+1.794900E+01,-1.371100E+01
+1.795900E+01,-1.371400E+01
+1.796900E+01,-1.370200E+01
+1.797900E+01,-1.371600E+01
+1.798900E+01,-1.369900E+01
+1.799900E+01,-1.371000E+01
+1.800900E+01,-1.370500E+01
+1.801900E+01,-1.369800E+01
+1.802900E+01,-1.372500E+01
+1.803900E+01,-1.369800E+01
+1.804900E+01,-1.371800E+01
+1.805900E+01,-1.371000E+01
+1.806900E+01,-1.371500E+01
+1.807900E+01,-1.372000E+01
+1.808900E+01,-1.370000E+01
+1.809900E+01,-1.372200E+01
+1.810900E+01,-1.369800E+01
+1.811900E+01,-1.371400E+01
+1.812900E+01,-1.370900E+01
+1.813900E+01,-1.370300E+01
+1.814900E+01,-1.371900E+01
+1.815900E+01,-1.370300E+01
+1.816900E+01,-1.372500E+01
+1.817900E+01,-1.370800E+01
+1.818900E+01,-1.371400E+01
+1.819900E+01,-1.371400E+01
+1.820900E+01,-1.370900E+01
+1.821900E+01,-1.371500E+01
+1.822900E+01,-1.370600E+01
+1.823900E+01,-1.371500E+01
+1.824900E+01,-1.370900E+01
+1.825900E+01,-1.371100E+01
+1.826900E+01,-1.371000E+01
+1.827900E+01,-1.371000E+01
+1.828900E+01,-1.371300E+01
+1.829900E+01,-1.371200E+01
+1.830900E+01,-1.371300E+01
+1.831900E+01,-1.371000E+01
+1.832900E+01,-1.371300E+01
+1.833900E+01,-1.371200E+01
+1.834900E+01,-1.371200E+01
+1.835900E+01,-1.371200E+01
+1.836900E+01,-1.371300E+01
+1.837900E+01,-1.371400E+01
+1.838900E+01,-1.371200E+01
+1.839900E+01,-1.371100E+01
+1.840900E+01,-1.371300E+01
+1.841900E+01,-1.370900E+01
+1.842900E+01,-1.371300E+01
+1.843900E+01,-1.371100E+01
+1.844900E+01,-1.371400E+01
+1.845900E+01,-1.371400E+01
+1.846900E+01,-1.371600E+01
+1.847900E+01,-1.371300E+01
+1.848900E+01,-1.371200E+01
+1.849900E+01,-1.371000E+01
+1.850900E+01,-1.371200E+01
+1.851900E+01,-1.371100E+01
+1.852900E+01,-1.371200E+01
+1.853900E+01,-1.371200E+01
+1.854900E+01,-1.371500E+01
+1.855900E+01,-1.371300E+01
+1.856900E+01,-1.371200E+01
+1.857900E+01,-1.371500E+01
+1.858900E+01,-1.371500E+01
+1.859900E+01,-1.371500E+01
+1.860900E+01,-1.371400E+01
+1.861900E+01,-1.371400E+01
+1.862900E+01,-1.371400E+01
+1.863900E+01,-1.371400E+01
+1.864900E+01,-1.371200E+01
+1.865900E+01,-1.371200E+01
+1.866900E+01,-1.371100E+01
+1.867900E+01,-1.371000E+01
+1.868900E+01,-1.371300E+01
+1.869900E+01,-1.371300E+01
+1.870900E+01,-1.371300E+01
+1.871900E+01,-1.371400E+01
+1.872900E+01,-1.371500E+01
+1.873900E+01,-1.371300E+01
+1.874900E+01,-1.371500E+01
+1.875900E+01,-1.371400E+01
+1.876900E+01,-1.371500E+01
+1.877900E+01,-1.371600E+01
+1.878900E+01,-1.371500E+01
+1.879900E+01,-1.371500E+01
+1.880900E+01,-1.371600E+01
+1.881900E+01,-1.371500E+01
+1.882900E+01,-1.371700E+01
+1.883900E+01,-1.371200E+01
+1.884900E+01,-1.371400E+01
+1.885900E+01,-1.371900E+01
+1.886900E+01,-1.371900E+01
+1.887900E+01,-1.371900E+01
+1.888900E+01,-1.371500E+01
+1.889900E+01,-1.371500E+01
+1.890900E+01,-1.371000E+01
+1.891900E+01,-1.370800E+01
+1.892900E+01,-1.371800E+01
+1.893900E+01,-1.371100E+01
+1.894900E+01,-1.372300E+01
+1.895900E+01,-1.372200E+01
+1.896900E+01,-1.371100E+01
+1.897900E+01,-1.372200E+01
+1.898900E+01,-1.370600E+01
+1.899900E+01,-1.372100E+01
+1.900900E+01,-1.370400E+01
+1.901900E+01,-1.371200E+01
+1.902900E+01,-1.371200E+01
+1.903900E+01,-1.371100E+01
+1.904900E+01,-1.373300E+01
+1.905900E+01,-1.370700E+01
+1.906900E+01,-1.372700E+01
+1.907900E+01,-1.371100E+01
+1.908900E+01,-1.372100E+01
+1.909900E+01,-1.371900E+01
+1.910900E+01,-1.370500E+01
+1.911900E+01,-1.373100E+01
+1.912900E+01,-1.371000E+01
+1.913900E+01,-1.372100E+01
+1.914900E+01,-1.371000E+01
+1.915900E+01,-1.370400E+01
+1.916900E+01,-1.371600E+01
+1.917900E+01,-1.370000E+01
+1.918900E+01,-1.372800E+01
+1.919900E+01,-1.370600E+01
+1.920900E+01,-1.371800E+01
+1.921900E+01,-1.371800E+01
+1.922900E+01,-1.371300E+01
+1.923900E+01,-1.372700E+01
+1.924900E+01,-1.371000E+01
+1.925900E+01,-1.371100E+01
+1.926900E+01,-1.370900E+01
+1.927900E+01,-1.371500E+01
+1.928900E+01,-1.371700E+01
+1.929900E+01,-1.371500E+01
+1.930900E+01,-1.372400E+01
+1.931900E+01,-1.371400E+01
+1.932900E+01,-1.371600E+01
+1.933900E+01,-1.371600E+01
+1.934900E+01,-1.372000E+01
+1.935900E+01,-1.371700E+01
+1.936900E+01,-1.371800E+01
+1.937900E+01,-1.372200E+01
+1.938900E+01,-1.371900E+01
+1.939900E+01,-1.371600E+01
+1.940900E+01,-1.371600E+01
+1.941900E+01,-1.371700E+01
+1.942900E+01,-1.371700E+01
+1.943900E+01,-1.371600E+01
+1.944900E+01,-1.371500E+01
+1.945900E+01,-1.371600E+01
+1.946900E+01,-1.371800E+01
+1.947900E+01,-1.371800E+01
+1.948900E+01,-1.371700E+01
+1.949900E+01,-1.371600E+01
+1.950900E+01,-1.371600E+01
+1.951900E+01,-1.371600E+01
+1.952900E+01,-1.371500E+01
+1.953900E+01,-1.371400E+01
+1.954900E+01,-1.371500E+01
+1.955900E+01,-1.371100E+01
+1.956900E+01,-1.371300E+01
+1.957900E+01,-1.371500E+01
+1.958900E+01,-1.371300E+01
+1.959900E+01,-1.371500E+01
+1.960900E+01,-1.371500E+01
+1.961900E+01,-1.371500E+01
+1.962900E+01,-1.371300E+01
+1.963900E+01,-1.371000E+01
+1.964900E+01,-1.371300E+01
+1.965900E+01,-1.371400E+01
+1.966900E+01,-1.371500E+01
+1.967900E+01,-1.371600E+01
+1.968900E+01,-1.371500E+01
+1.969900E+01,-1.371300E+01
+1.970900E+01,-1.371500E+01
+1.971900E+01,-1.371400E+01
+1.972900E+01,-1.371500E+01
+1.973900E+01,-1.371500E+01
+1.974900E+01,-1.371400E+01
+1.975900E+01,-1.371500E+01
+1.976900E+01,-1.371400E+01
+1.977900E+01,-1.371400E+01
+1.978900E+01,-1.371600E+01
+1.979900E+01,-1.371500E+01
+1.980900E+01,-1.371400E+01
+1.981900E+01,-1.371600E+01
+1.982900E+01,-1.371400E+01
+1.983900E+01,-1.371500E+01
+1.984900E+01,-1.371500E+01
+1.985900E+01,-1.371500E+01
+1.986900E+01,-1.371400E+01
+1.987900E+01,-1.371600E+01
+1.988900E+01,-1.371500E+01
+1.989900E+01,-1.371900E+01
+1.990900E+01,-1.371500E+01
+1.991900E+01,-1.371800E+01
+1.992900E+01,-1.372100E+01
+1.993900E+01,-1.371700E+01
+1.994900E+01,-1.372300E+01
+1.995900E+01,-1.372300E+01
+1.996900E+01,-1.371500E+01
+1.997900E+01,-1.372400E+01
+1.998900E+01,-1.371100E+01
+1.999900E+01,-1.372000E+01
+2.000900E+01,-1.371500E+01
+2.001900E+01,-1.371600E+01
+2.002900E+01,-1.372100E+01
+2.003900E+01,-1.371200E+01
+2.004900E+01,-1.372600E+01
+2.005900E+01,-1.370500E+01
+2.006900E+01,-1.370900E+01
+2.007900E+01,-1.371600E+01
+2.008900E+01,-1.373300E+01
+2.009900E+01,-1.373200E+01
+2.010900E+01,-1.370400E+01
+2.011900E+01,-1.373100E+01
+2.012900E+01,-1.370900E+01
+2.013900E+01,-1.371900E+01
+2.014900E+01,-1.370400E+01
+2.015900E+01,-1.370800E+01
+2.016900E+01,-1.372200E+01
+2.017900E+01,-1.371500E+01
+2.018900E+01,-1.373100E+01
+2.019900E+01,-1.371100E+01
+2.020900E+01,-1.372700E+01
+2.021900E+01,-1.371900E+01
+2.022900E+01,-1.372300E+01
+2.023900E+01,-1.371500E+01
+2.024900E+01,-1.371200E+01
+2.025900E+01,-1.372400E+01
+2.026900E+01,-1.371400E+01
+2.027900E+01,-1.371700E+01
+2.028900E+01,-1.371500E+01
+2.029900E+01,-1.371700E+01
+2.030900E+01,-1.372000E+01
+2.031900E+01,-1.371500E+01
+2.032900E+01,-1.372300E+01
+2.033900E+01,-1.371600E+01
+2.034900E+01,-1.371700E+01
+2.035900E+01,-1.371700E+01
+2.036900E+01,-1.371700E+01
+2.037900E+01,-1.371600E+01
+2.038900E+01,-1.371500E+01
+2.039900E+01,-1.371500E+01
+2.040900E+01,-1.371500E+01
+2.041900E+01,-1.371500E+01
+2.042900E+01,-1.371900E+01
+2.043900E+01,-1.371800E+01
+2.044900E+01,-1.371600E+01
+2.045900E+01,-1.371900E+01
+2.046900E+01,-1.371000E+01
+2.047900E+01,-1.371600E+01
+2.048900E+01,-1.371400E+01
+2.049900E+01,-1.371900E+01
+2.050900E+01,-1.371700E+01
+2.051900E+01,-1.371800E+01
+2.052900E+01,-1.371600E+01
+2.053900E+01,-1.371200E+01
+2.054900E+01,-1.371900E+01
+2.055900E+01,-1.371900E+01
+2.056900E+01,-1.372400E+01
+2.057900E+01,-1.372200E+01
+2.058900E+01,-1.372200E+01
+2.059900E+01,-1.371300E+01
+2.060900E+01,-1.371600E+01
+2.061900E+01,-1.371500E+01
+2.062900E+01,-1.371700E+01
+2.063900E+01,-1.372600E+01
+2.064900E+01,-1.372700E+01
+2.065900E+01,-1.373200E+01
+2.066900E+01,-1.372300E+01
+2.067900E+01,-1.372100E+01
+2.068900E+01,-1.371800E+01
+2.069900E+01,-1.372000E+01
+2.070900E+01,-1.372000E+01
+2.071900E+01,-1.372000E+01
+2.072900E+01,-1.371700E+01
+2.073900E+01,-1.372500E+01
+2.074900E+01,-1.372200E+01
+2.075900E+01,-1.372700E+01
+2.076900E+01,-1.372100E+01
+2.077900E+01,-1.371600E+01
+2.078900E+01,-1.372300E+01
+2.079900E+01,-1.372400E+01
+2.080900E+01,-1.373300E+01
+2.081900E+01,-1.371600E+01
+2.082900E+01,-1.372200E+01
+2.083900E+01,-1.371900E+01
+2.084900E+01,-1.371700E+01
+2.085900E+01,-1.371100E+01
+2.086900E+01,-1.372000E+01
+2.087900E+01,-1.372400E+01
+2.088900E+01,-1.372100E+01
+2.089900E+01,-1.372600E+01
+2.090900E+01,-1.371500E+01
+2.091900E+01,-1.372800E+01
+2.092900E+01,-1.371600E+01
+2.093900E+01,-1.372700E+01
+2.094900E+01,-1.372100E+01
+2.095900E+01,-1.372800E+01
+2.096900E+01,-1.371800E+01
+2.097900E+01,-1.372300E+01
+2.098900E+01,-1.372700E+01
+2.099900E+01,-1.372200E+01
+2.100900E+01,-1.373000E+01
+2.101900E+01,-1.371500E+01
+2.102900E+01,-1.372900E+01
+2.103900E+01,-1.371800E+01
+2.104900E+01,-1.372000E+01
+2.105900E+01,-1.371700E+01
+2.106900E+01,-1.371300E+01
+2.107900E+01,-1.373100E+01
+2.108900E+01,-1.370700E+01
+2.109900E+01,-1.373400E+01
+2.110900E+01,-1.371300E+01
+2.111900E+01,-1.373700E+01
+2.112900E+01,-1.371900E+01
+2.113900E+01,-1.372800E+01
+2.114900E+01,-1.372000E+01
+2.115900E+01,-1.372000E+01
+2.116900E+01,-1.372500E+01
+2.117900E+01,-1.372100E+01
+2.118900E+01,-1.373300E+01
+2.119900E+01,-1.371800E+01
+2.120900E+01,-1.373500E+01
+2.121900E+01,-1.371000E+01
+2.122900E+01,-1.373100E+01
+2.123900E+01,-1.371100E+01
+2.124900E+01,-1.372800E+01
+2.125900E+01,-1.371900E+01
+2.126900E+01,-1.372400E+01
+2.127900E+01,-1.371800E+01
+2.128900E+01,-1.372000E+01
+2.129900E+01,-1.372200E+01
+2.130900E+01,-1.372000E+01
+2.131900E+01,-1.372500E+01
+2.132900E+01,-1.372100E+01
+2.133900E+01,-1.372700E+01
+2.134900E+01,-1.372000E+01
+2.135900E+01,-1.372400E+01
+2.136900E+01,-1.372200E+01
+2.137900E+01,-1.372200E+01
+2.138900E+01,-1.372300E+01
+2.139900E+01,-1.372300E+01
+2.140900E+01,-1.372000E+01
+2.141900E+01,-1.372100E+01
+2.142900E+01,-1.372100E+01
+2.143900E+01,-1.372500E+01
+2.144900E+01,-1.372300E+01
+2.145900E+01,-1.372200E+01
+2.146900E+01,-1.372400E+01
+2.147900E+01,-1.372100E+01
+2.148900E+01,-1.372000E+01
+2.149900E+01,-1.372100E+01
+2.150900E+01,-1.372200E+01
+2.151900E+01,-1.372400E+01
+2.152900E+01,-1.372300E+01
+2.153900E+01,-1.372200E+01
+2.154900E+01,-1.372200E+01
+2.155900E+01,-1.372100E+01
+2.156900E+01,-1.372500E+01
+2.157900E+01,-1.372500E+01
+2.158900E+01,-1.372400E+01
+2.159900E+01,-1.372300E+01
+2.160900E+01,-1.372300E+01
+2.161900E+01,-1.372600E+01
+2.162900E+01,-1.372500E+01
+2.163900E+01,-1.372500E+01
+2.164900E+01,-1.372400E+01
+2.165900E+01,-1.372400E+01
+2.166900E+01,-1.372600E+01
+2.167900E+01,-1.372300E+01
+2.168900E+01,-1.372500E+01
+2.169900E+01,-1.372300E+01
+2.170900E+01,-1.372500E+01
+2.171900E+01,-1.372500E+01
+2.172900E+01,-1.372500E+01
+2.173900E+01,-1.372300E+01
+2.174900E+01,-1.372400E+01
+2.175900E+01,-1.372500E+01
+2.176900E+01,-1.372500E+01
+2.177900E+01,-1.372600E+01
+2.178900E+01,-1.372500E+01
+2.179900E+01,-1.372800E+01
+2.180900E+01,-1.372500E+01
+2.181900E+01,-1.372800E+01
+2.182900E+01,-1.372300E+01
+2.183900E+01,-1.372700E+01
+2.184900E+01,-1.372500E+01
+2.185900E+01,-1.372300E+01
+2.186900E+01,-1.372400E+01
+2.187900E+01,-1.372200E+01
+2.188900E+01,-1.372200E+01
+2.189900E+01,-1.372400E+01
+2.190900E+01,-1.372400E+01
+2.191900E+01,-1.372500E+01
+2.192900E+01,-1.372500E+01
+2.193900E+01,-1.372500E+01
+2.194900E+01,-1.372500E+01
+2.195900E+01,-1.372500E+01
+2.196900E+01,-1.372700E+01
+2.197900E+01,-1.372300E+01
+2.198900E+01,-1.372800E+01
+2.199900E+01,-1.372300E+01
+2.200900E+01,-1.372000E+01
+2.201900E+01,-1.372600E+01
+2.202900E+01,-1.372100E+01
+2.203900E+01,-1.373100E+01
+2.204900E+01,-1.371500E+01
+2.205900E+01,-1.372800E+01
+2.206900E+01,-1.372300E+01
+2.207900E+01,-1.373400E+01
+2.208900E+01,-1.372900E+01
+2.209900E+01,-1.372400E+01
+2.210900E+01,-1.373500E+01
+2.211900E+01,-1.371700E+01
+2.212900E+01,-1.373700E+01
+2.213900E+01,-1.371600E+01
+2.214900E+01,-1.374200E+01
+2.215900E+01,-1.371900E+01
+2.216900E+01,-1.373100E+01
+2.217900E+01,-1.371200E+01
+2.218900E+01,-1.371800E+01
+2.219900E+01,-1.373600E+01
+2.220900E+01,-1.372200E+01
+2.221900E+01,-1.374200E+01
+2.222900E+01,-1.371800E+01
+2.223900E+01,-1.373800E+01
+2.224900E+01,-1.372600E+01
+2.225900E+01,-1.372200E+01
+2.226900E+01,-1.373200E+01
+2.227900E+01,-1.372800E+01
+2.228900E+01,-1.373800E+01
+2.229900E+01,-1.372000E+01
+2.230900E+01,-1.373100E+01
+2.231900E+01,-1.372500E+01
+2.232900E+01,-1.372700E+01
+2.233900E+01,-1.372500E+01
+2.234900E+01,-1.372300E+01
+2.235900E+01,-1.373500E+01
+2.236900E+01,-1.373400E+01
+2.237900E+01,-1.373200E+01
+2.238900E+01,-1.372700E+01
+2.239900E+01,-1.372000E+01
+2.240900E+01,-1.372500E+01
+2.241900E+01,-1.372900E+01
+2.242900E+01,-1.373300E+01
+2.243900E+01,-1.372900E+01
+2.244900E+01,-1.372700E+01
+2.245900E+01,-1.372600E+01
+2.246900E+01,-1.372200E+01
+2.247900E+01,-1.372800E+01
+2.248900E+01,-1.372400E+01
+2.249900E+01,-1.373400E+01
+2.250900E+01,-1.373000E+01
+2.251900E+01,-1.372900E+01
+2.252900E+01,-1.372300E+01
+2.253900E+01,-1.372600E+01
+2.254900E+01,-1.372300E+01
+2.255900E+01,-1.372900E+01
+2.256900E+01,-1.372500E+01
+2.257900E+01,-1.373000E+01
+2.258900E+01,-1.372900E+01
+2.259900E+01,-1.372700E+01
+2.260900E+01,-1.372800E+01
+2.261900E+01,-1.372700E+01
+2.262900E+01,-1.372500E+01
+2.263900E+01,-1.372500E+01
+2.264900E+01,-1.372700E+01
+2.265900E+01,-1.372600E+01
+2.266900E+01,-1.372700E+01
+2.267900E+01,-1.373200E+01
+2.268900E+01,-1.372800E+01
+2.269900E+01,-1.372800E+01
+2.270900E+01,-1.372900E+01
+2.271900E+01,-1.372900E+01
+2.272900E+01,-1.372700E+01
+2.273900E+01,-1.372700E+01
+2.274900E+01,-1.372800E+01
+2.275900E+01,-1.372400E+01
+2.276900E+01,-1.372800E+01
+2.277900E+01,-1.372800E+01
+2.278900E+01,-1.372600E+01
+2.279900E+01,-1.372500E+01
+2.280900E+01,-1.372700E+01
+2.281900E+01,-1.372800E+01
+2.282900E+01,-1.372700E+01
+2.283900E+01,-1.372500E+01
+2.284900E+01,-1.372700E+01
+2.285900E+01,-1.372700E+01
+2.286900E+01,-1.372800E+01
+2.287900E+01,-1.372900E+01
+2.288900E+01,-1.372800E+01
+2.289900E+01,-1.372900E+01
+2.290900E+01,-1.372500E+01
+2.291900E+01,-1.372800E+01
+2.292900E+01,-1.372500E+01
+2.293900E+01,-1.372400E+01
+2.294900E+01,-1.372600E+01
+2.295900E+01,-1.372700E+01
+2.296900E+01,-1.372500E+01
+2.297900E+01,-1.372700E+01
+2.298900E+01,-1.372600E+01
+2.299900E+01,-1.372900E+01
+2.300900E+01,-1.372400E+01
+2.301900E+01,-1.372600E+01
+2.302900E+01,-1.372600E+01
+2.303900E+01,-1.372300E+01
+2.304900E+01,-1.372600E+01
+2.305900E+01,-1.372100E+01
+2.306900E+01,-1.373400E+01
+2.307900E+01,-1.371700E+01
+2.308900E+01,-1.373700E+01
+2.309900E+01,-1.372300E+01
+2.310900E+01,-1.372600E+01
+2.311900E+01,-1.373400E+01
+2.312900E+01,-1.371900E+01
+2.313900E+01,-1.374300E+01
+2.314900E+01,-1.371200E+01
+2.315900E+01,-1.373400E+01
+2.316900E+01,-1.371900E+01
+2.317900E+01,-1.372600E+01
+2.318900E+01,-1.372600E+01
+2.319900E+01,-1.372100E+01
+2.320900E+01,-1.371700E+01
+2.321900E+01,-1.373300E+01
+2.322900E+01,-1.371200E+01
+2.323900E+01,-1.374000E+01
+2.324900E+01,-1.372200E+01
+2.325900E+01,-1.373500E+01
+2.326900E+01,-1.372500E+01
+2.327900E+01,-1.372900E+01
+2.328900E+01,-1.373100E+01
+2.329900E+01,-1.372200E+01
+2.330900E+01,-1.373500E+01
+2.331900E+01,-1.371900E+01
+2.332900E+01,-1.373000E+01
+2.333900E+01,-1.371800E+01
+2.334900E+01,-1.372700E+01
+2.335900E+01,-1.372500E+01
+2.336900E+01,-1.372500E+01
+2.337900E+01,-1.372900E+01
+2.338900E+01,-1.372400E+01
+2.339900E+01,-1.372400E+01
+2.340900E+01,-1.372500E+01
+2.341900E+01,-1.372400E+01
+2.342900E+01,-1.372400E+01
+2.343900E+01,-1.372500E+01
+2.344900E+01,-1.372700E+01
+2.345900E+01,-1.372800E+01
+2.346900E+01,-1.372600E+01
+2.347900E+01,-1.372500E+01
+2.348900E+01,-1.372700E+01
+2.349900E+01,-1.372600E+01
+2.350900E+01,-1.372400E+01
+2.351900E+01,-1.372800E+01
+2.352900E+01,-1.372800E+01
+2.353900E+01,-1.372700E+01
+2.354900E+01,-1.372800E+01
+2.355900E+01,-1.372800E+01
+2.356900E+01,-1.372600E+01
+2.357900E+01,-1.372500E+01
+2.358900E+01,-1.372700E+01
+2.359900E+01,-1.372700E+01
+2.360900E+01,-1.372700E+01
+2.361900E+01,-1.372600E+01
+2.362900E+01,-1.372900E+01
+2.363900E+01,-1.372400E+01
+2.364900E+01,-1.372600E+01
+2.365900E+01,-1.372500E+01
+2.366900E+01,-1.372800E+01
+2.367900E+01,-1.373000E+01
+2.368900E+01,-1.372900E+01
+2.369900E+01,-1.372900E+01
+2.370900E+01,-1.372500E+01
+2.371900E+01,-1.372600E+01
+2.372900E+01,-1.373400E+01
+2.373900E+01,-1.373200E+01
+2.374900E+01,-1.373400E+01
+2.375900E+01,-1.373000E+01
+2.376900E+01,-1.372500E+01
+2.377900E+01,-1.373000E+01
+2.378900E+01,-1.373000E+01
+2.379900E+01,-1.372500E+01
+2.380900E+01,-1.372500E+01
+2.381900E+01,-1.372600E+01
+2.382900E+01,-1.372200E+01
+2.383900E+01,-1.372000E+01
+2.384900E+01,-1.373200E+01
+2.385900E+01,-1.372700E+01
+2.386900E+01,-1.372600E+01
+2.387900E+01,-1.371900E+01
+2.388900E+01,-1.372500E+01
+2.389900E+01,-1.372100E+01
+2.390900E+01,-1.372500E+01
+2.391900E+01,-1.372200E+01
+2.392900E+01,-1.372000E+01
+2.393900E+01,-1.372900E+01
+2.394900E+01,-1.373000E+01
+2.395900E+01,-1.373000E+01
+2.396900E+01,-1.372000E+01
+2.397900E+01,-1.372200E+01
+2.398900E+01,-1.372400E+01
+2.399900E+01,-1.372500E+01
+2.400900E+01,-1.372300E+01
+2.401900E+01,-1.371800E+01
+2.402900E+01,-1.372800E+01
+2.403900E+01,-1.372000E+01
+2.404900E+01,-1.373500E+01
+2.405900E+01,-1.372600E+01
+2.406900E+01,-1.373300E+01
+2.407900E+01,-1.372900E+01
+2.408900E+01,-1.371800E+01
+2.409900E+01,-1.373500E+01
+2.410900E+01,-1.371400E+01
+2.411900E+01,-1.373600E+01
+2.412900E+01,-1.371800E+01
+2.413900E+01,-1.372100E+01
+2.414900E+01,-1.373100E+01
+2.415900E+01,-1.371600E+01
+2.416900E+01,-1.373100E+01
+2.417900E+01,-1.371600E+01
+2.418900E+01,-1.374400E+01
+2.419900E+01,-1.373200E+01
+2.420900E+01,-1.372500E+01
+2.421900E+01,-1.374100E+01
+2.422900E+01,-1.371900E+01
+2.423900E+01,-1.373600E+01
+2.424900E+01,-1.372100E+01
+2.425900E+01,-1.372500E+01
+2.426900E+01,-1.373300E+01
+2.427900E+01,-1.371900E+01
+2.428900E+01,-1.373800E+01
+2.429900E+01,-1.372000E+01
+2.430900E+01,-1.373800E+01
+2.431900E+01,-1.372900E+01
+2.432900E+01,-1.373300E+01
+2.433900E+01,-1.373200E+01
+2.434900E+01,-1.372600E+01
+2.435900E+01,-1.373100E+01
+2.436900E+01,-1.372700E+01
+2.437900E+01,-1.373400E+01
+2.438900E+01,-1.372800E+01
+2.439900E+01,-1.373100E+01
+2.440900E+01,-1.373000E+01
+2.441900E+01,-1.372800E+01
+2.442900E+01,-1.372700E+01
+2.443900E+01,-1.372800E+01
+2.444900E+01,-1.372900E+01
+2.445900E+01,-1.373000E+01
+2.446900E+01,-1.372700E+01
+2.447900E+01,-1.373000E+01
+2.448900E+01,-1.372900E+01
+2.449900E+01,-1.372800E+01
+2.450900E+01,-1.372800E+01
+2.451900E+01,-1.373100E+01
+2.452900E+01,-1.372800E+01
+2.453900E+01,-1.373100E+01
+2.454900E+01,-1.372900E+01
+2.455900E+01,-1.372900E+01
+2.456900E+01,-1.372800E+01
+2.457900E+01,-1.372700E+01
+2.458900E+01,-1.373000E+01
+2.459900E+01,-1.372800E+01
+2.460900E+01,-1.372900E+01
+2.461900E+01,-1.372900E+01
+2.462900E+01,-1.372800E+01
+2.463900E+01,-1.372600E+01
+2.464900E+01,-1.372700E+01
+2.465900E+01,-1.372500E+01
+2.466900E+01,-1.372800E+01
+2.467900E+01,-1.372600E+01
+2.468900E+01,-1.372600E+01
+2.469900E+01,-1.372600E+01
+2.470900E+01,-1.372700E+01
+2.471900E+01,-1.372700E+01
+2.472900E+01,-1.372700E+01
+2.473900E+01,-1.372700E+01
+2.474900E+01,-1.372700E+01
+2.475900E+01,-1.372700E+01
+2.476900E+01,-1.372800E+01
+2.477900E+01,-1.372600E+01
+2.478900E+01,-1.372700E+01
+2.479900E+01,-1.372700E+01
+2.480900E+01,-1.372700E+01
+2.481900E+01,-1.372700E+01
+2.482900E+01,-1.372700E+01
+2.483900E+01,-1.372600E+01
+2.484900E+01,-1.372600E+01
+2.485900E+01,-1.372600E+01
+2.486900E+01,-1.372900E+01
+2.487900E+01,-1.372600E+01
+2.488900E+01,-1.372500E+01
+2.489900E+01,-1.372600E+01
+2.490900E+01,-1.372800E+01
+2.491900E+01,-1.372600E+01
+2.492900E+01,-1.372700E+01
+2.493900E+01,-1.372700E+01
+2.494900E+01,-1.372900E+01
+2.495900E+01,-1.372800E+01
+2.496900E+01,-1.372700E+01
+2.497900E+01,-1.372600E+01
+2.498900E+01,-1.372800E+01
+2.499900E+01,-1.372600E+01
+2.500900E+01,-1.372900E+01
+2.501900E+01,-1.372900E+01
+2.502900E+01,-1.372800E+01
+2.503900E+01,-1.372800E+01
+2.504900E+01,-1.372500E+01
+2.505900E+01,-1.373200E+01
+2.506900E+01,-1.372500E+01
+2.507900E+01,-1.372800E+01
+2.508900E+01,-1.372500E+01
+2.509900E+01,-1.372300E+01
+2.510900E+01,-1.372600E+01
+2.511900E+01,-1.372000E+01
+2.512900E+01,-1.373600E+01
+2.513900E+01,-1.371600E+01
+2.514900E+01,-1.373500E+01
+2.515900E+01,-1.372800E+01
+2.516900E+01,-1.373400E+01
+2.517900E+01,-1.373500E+01
+2.518900E+01,-1.372600E+01
+2.519900E+01,-1.374200E+01
+2.520900E+01,-1.371500E+01
+2.521900E+01,-1.374000E+01
+2.522900E+01,-1.371500E+01
+2.523900E+01,-1.373900E+01
+2.524900E+01,-1.371300E+01
+2.525900E+01,-1.373600E+01
+2.526900E+01,-1.372000E+01
+2.527900E+01,-1.372800E+01
+2.528900E+01,-1.372500E+01
+2.529900E+01,-1.372300E+01
+2.530900E+01,-1.373000E+01
+2.531900E+01,-1.372100E+01
+2.532900E+01,-1.373200E+01
+2.533900E+01,-1.371600E+01
+2.534900E+01,-1.373000E+01
+2.535900E+01,-1.372200E+01
+2.536900E+01,-1.373500E+01
+2.537900E+01,-1.373100E+01
+2.538900E+01,-1.373500E+01
+2.539900E+01,-1.372700E+01
+2.540900E+01,-1.372700E+01
+2.541900E+01,-1.372600E+01
+2.542900E+01,-1.372700E+01
+2.543900E+01,-1.373500E+01
+2.544900E+01,-1.373100E+01
+2.545900E+01,-1.374100E+01
+2.546900E+01,-1.373200E+01
+2.547900E+01,-1.372800E+01
+2.548900E+01,-1.372800E+01
+2.549900E+01,-1.372000E+01
+2.550900E+01,-1.372900E+01
+2.551900E+01,-1.373400E+01
+2.552900E+01,-1.373100E+01
+2.553900E+01,-1.372700E+01
+2.554900E+01,-1.373400E+01
+2.555900E+01,-1.372900E+01
+2.556900E+01,-1.372200E+01
+2.557900E+01,-1.372600E+01
+2.558900E+01,-1.373400E+01
+2.559900E+01,-1.373100E+01
+2.560900E+01,-1.372900E+01
+2.561900E+01,-1.372800E+01
+2.562900E+01,-1.372400E+01
+2.563900E+01,-1.373000E+01
+2.564900E+01,-1.371500E+01
+2.565900E+01,-1.373100E+01
+2.566900E+01,-1.373100E+01
+2.567900E+01,-1.372900E+01
+2.568900E+01,-1.372500E+01
+2.569900E+01,-1.373100E+01
+2.570900E+01,-1.373300E+01
+2.571900E+01,-1.373300E+01
+2.572900E+01,-1.372500E+01
+2.573900E+01,-1.373000E+01
+2.574900E+01,-1.372400E+01
+2.575900E+01,-1.372700E+01
+2.576900E+01,-1.372900E+01
+2.577900E+01,-1.373000E+01
+2.578900E+01,-1.373200E+01
+2.579900E+01,-1.372800E+01
+2.580900E+01,-1.372300E+01
+2.581900E+01,-1.372600E+01
+2.582900E+01,-1.373000E+01
+2.583900E+01,-1.373200E+01
+2.584900E+01,-1.373100E+01
+2.585900E+01,-1.372800E+01
+2.586900E+01,-1.373000E+01
+2.587900E+01,-1.372700E+01
+2.588900E+01,-1.373000E+01
+2.589900E+01,-1.372800E+01
+2.590900E+01,-1.372900E+01
+2.591900E+01,-1.373000E+01
+2.592900E+01,-1.373000E+01
+2.593900E+01,-1.372700E+01
+2.594900E+01,-1.372700E+01
+2.595900E+01,-1.372900E+01
+2.596900E+01,-1.372700E+01
+2.597900E+01,-1.372600E+01
+2.598900E+01,-1.373000E+01
+2.599900E+01,-1.372700E+01
+2.600900E+01,-1.372800E+01
+2.601900E+01,-1.372700E+01
+2.602900E+01,-1.372500E+01
+2.603900E+01,-1.372700E+01
+2.604900E+01,-1.372600E+01
+2.605900E+01,-1.373000E+01
+2.606900E+01,-1.372600E+01
+2.607900E+01,-1.373100E+01
+2.608900E+01,-1.373400E+01
+2.609900E+01,-1.372700E+01
+2.610900E+01,-1.373600E+01
+2.611900E+01,-1.372300E+01
+2.612900E+01,-1.373300E+01
+2.613900E+01,-1.372500E+01
+2.614900E+01,-1.372700E+01
+2.615900E+01,-1.373100E+01
+2.616900E+01,-1.372100E+01
+2.617900E+01,-1.373800E+01
+2.618900E+01,-1.371700E+01
+2.619900E+01,-1.374200E+01
+2.620900E+01,-1.371900E+01
+2.621900E+01,-1.374300E+01
+2.622900E+01,-1.373000E+01
+2.623900E+01,-1.372700E+01
+2.624900E+01,-1.373600E+01
+2.625900E+01,-1.373700E+01
+2.626900E+01,-1.374000E+01
+2.627900E+01,-1.372400E+01
+2.628900E+01,-1.373900E+01
+2.629900E+01,-1.372000E+01
+2.630900E+01,-1.373900E+01
+2.631900E+01,-1.371900E+01
+2.632900E+01,-1.373000E+01
+2.633900E+01,-1.372500E+01
+2.634900E+01,-1.372900E+01
+2.635900E+01,-1.373600E+01
+2.636900E+01,-1.372400E+01
+2.637900E+01,-1.373500E+01
+2.638900E+01,-1.372800E+01
+2.639900E+01,-1.373700E+01
+2.640900E+01,-1.372800E+01
+2.641900E+01,-1.373000E+01
+2.642900E+01,-1.373000E+01
+2.643900E+01,-1.373500E+01
+2.644900E+01,-1.373100E+01
+2.645900E+01,-1.373300E+01
+2.646900E+01,-1.373100E+01
+2.647900E+01,-1.373200E+01
+2.648900E+01,-1.373200E+01
+2.649900E+01,-1.373000E+01
+2.650900E+01,-1.373200E+01
+2.651900E+01,-1.373200E+01
+2.652900E+01,-1.373400E+01
+2.653900E+01,-1.373300E+01
+2.654900E+01,-1.373300E+01
+2.655900E+01,-1.373300E+01
+2.656900E+01,-1.373100E+01
+2.657900E+01,-1.373300E+01
+2.658900E+01,-1.373100E+01
+2.659900E+01,-1.373200E+01
+2.660900E+01,-1.373100E+01
+2.661900E+01,-1.373100E+01
+2.662900E+01,-1.373000E+01
+2.663900E+01,-1.373000E+01
+2.664900E+01,-1.373100E+01
+2.665900E+01,-1.373200E+01
+2.666900E+01,-1.373000E+01
+2.667900E+01,-1.372900E+01
+2.668900E+01,-1.373200E+01
+2.669900E+01,-1.373100E+01
+2.670900E+01,-1.373300E+01
+2.671900E+01,-1.373100E+01
+2.672900E+01,-1.373200E+01
+2.673900E+01,-1.373100E+01
+2.674900E+01,-1.373200E+01
+2.675900E+01,-1.373100E+01
+2.676900E+01,-1.373000E+01
+2.677900E+01,-1.373200E+01
+2.678900E+01,-1.373000E+01
+2.679900E+01,-1.373100E+01
+2.680900E+01,-1.373100E+01
+2.681900E+01,-1.373100E+01
+2.682900E+01,-1.373100E+01
+2.683900E+01,-1.373100E+01
+2.684900E+01,-1.373200E+01
+2.685900E+01,-1.373100E+01
+2.686900E+01,-1.373100E+01
+2.687900E+01,-1.373200E+01
+2.688900E+01,-1.373100E+01
+2.689900E+01,-1.373400E+01
+2.690900E+01,-1.373400E+01
+2.691900E+01,-1.373200E+01
+2.692900E+01,-1.373100E+01
+2.693900E+01,-1.373300E+01
+2.694900E+01,-1.373500E+01
+2.695900E+01,-1.373300E+01
+2.696900E+01,-1.373300E+01
+2.697900E+01,-1.373600E+01
+2.698900E+01,-1.373100E+01
+2.699900E+01,-1.372800E+01
+2.700900E+01,-1.373000E+01
+2.701900E+01,-1.373100E+01
+2.702900E+01,-1.373200E+01
+2.703900E+01,-1.373300E+01
+2.704900E+01,-1.373600E+01
+2.705900E+01,-1.374100E+01
+2.706900E+01,-1.373400E+01
+2.707900E+01,-1.373500E+01
+2.708900E+01,-1.373200E+01
+2.709900E+01,-1.373300E+01
+2.710900E+01,-1.373200E+01
+2.711900E+01,-1.374100E+01
+2.712900E+01,-1.373500E+01
+2.713900E+01,-1.374500E+01
+2.714900E+01,-1.372300E+01
+2.715900E+01,-1.373600E+01
+2.716900E+01,-1.372500E+01
+2.717900E+01,-1.374200E+01
+2.718900E+01,-1.373600E+01
+2.719900E+01,-1.373400E+01
+2.720900E+01,-1.374300E+01
+2.721900E+01,-1.372500E+01
+2.722900E+01,-1.374700E+01
+2.723900E+01,-1.371400E+01
+2.724900E+01,-1.373700E+01
+2.725900E+01,-1.372300E+01
+2.726900E+01,-1.373200E+01
+2.727900E+01,-1.374100E+01
+2.728900E+01,-1.372500E+01
+2.729900E+01,-1.373600E+01
+2.730900E+01,-1.372100E+01
+2.731900E+01,-1.374100E+01
+2.732900E+01,-1.373400E+01
+2.733900E+01,-1.374400E+01
+2.734900E+01,-1.373200E+01
+2.735900E+01,-1.373500E+01
+2.736900E+01,-1.374200E+01
+2.737900E+01,-1.372700E+01
+2.738900E+01,-1.374300E+01
+2.739900E+01,-1.372900E+01
+2.740900E+01,-1.373900E+01
+2.741900E+01,-1.372600E+01
+2.742900E+01,-1.373300E+01
+2.743900E+01,-1.373500E+01
+2.744900E+01,-1.373100E+01
+2.745900E+01,-1.373400E+01
+2.746900E+01,-1.373600E+01
+2.747900E+01,-1.373400E+01
+2.748900E+01,-1.373500E+01
+2.749900E+01,-1.373300E+01
+2.750900E+01,-1.373200E+01
+2.751900E+01,-1.373400E+01
+2.752900E+01,-1.373100E+01
+2.753900E+01,-1.373300E+01
+2.754900E+01,-1.373500E+01
+2.755900E+01,-1.373400E+01
+2.756900E+01,-1.373500E+01
+2.757900E+01,-1.373500E+01
+2.758900E+01,-1.373400E+01
+2.759900E+01,-1.373500E+01
+2.760900E+01,-1.373700E+01
+2.761900E+01,-1.373600E+01
+2.762900E+01,-1.373600E+01
+2.763900E+01,-1.373600E+01
+2.764900E+01,-1.373300E+01
+2.765900E+01,-1.373300E+01
+2.766900E+01,-1.373600E+01
+2.767900E+01,-1.373300E+01
+2.768900E+01,-1.373400E+01
+2.769900E+01,-1.373700E+01
+2.770900E+01,-1.373500E+01
+2.771900E+01,-1.373600E+01
+2.772900E+01,-1.373400E+01
+2.773900E+01,-1.373400E+01
+2.774900E+01,-1.373600E+01
+2.775900E+01,-1.373200E+01
+2.776900E+01,-1.373400E+01
+2.777900E+01,-1.373400E+01
+2.778900E+01,-1.373300E+01
+2.779900E+01,-1.373400E+01
+2.780900E+01,-1.373100E+01
+2.781900E+01,-1.373100E+01
+2.782900E+01,-1.373200E+01
+2.783900E+01,-1.373100E+01
+2.784900E+01,-1.373000E+01
+2.785900E+01,-1.373100E+01
+2.786900E+01,-1.373100E+01
+2.787900E+01,-1.373000E+01
+2.788900E+01,-1.373200E+01
+2.789900E+01,-1.373200E+01
+2.790900E+01,-1.373100E+01
+2.791900E+01,-1.373300E+01
+2.792900E+01,-1.373500E+01
+2.793900E+01,-1.373300E+01
+2.794900E+01,-1.373100E+01
+2.795900E+01,-1.373100E+01
+2.796900E+01,-1.373200E+01
+2.797900E+01,-1.373100E+01
+2.798900E+01,-1.373100E+01
+2.799900E+01,-1.373300E+01
+2.800900E+01,-1.373300E+01
+2.801900E+01,-1.373000E+01
+2.802900E+01,-1.373000E+01
+2.803900E+01,-1.373000E+01
+2.804900E+01,-1.372800E+01
+2.805900E+01,-1.373100E+01
+2.806900E+01,-1.372900E+01
+2.807900E+01,-1.373000E+01
+2.808900E+01,-1.373100E+01
+2.809900E+01,-1.372900E+01
+2.810900E+01,-1.373300E+01
+2.811900E+01,-1.372900E+01
+2.812900E+01,-1.373600E+01
+2.813900E+01,-1.372800E+01
+2.814900E+01,-1.373300E+01
+2.815900E+01,-1.372800E+01
+2.816900E+01,-1.372800E+01
+2.817900E+01,-1.373300E+01
+2.818900E+01,-1.372100E+01
+2.819900E+01,-1.374000E+01
+2.820900E+01,-1.372200E+01
+2.821900E+01,-1.374200E+01
+2.822900E+01,-1.373600E+01
+2.823900E+01,-1.372400E+01
+2.824900E+01,-1.374600E+01
+2.825900E+01,-1.372200E+01
+2.826900E+01,-1.373800E+01
+2.827900E+01,-1.372000E+01
+2.828900E+01,-1.372500E+01
+2.829900E+01,-1.373300E+01
+2.830900E+01,-1.371600E+01
+2.831900E+01,-1.374300E+01
+2.832900E+01,-1.372000E+01
+2.833900E+01,-1.374300E+01
+2.834900E+01,-1.372800E+01
+2.835900E+01,-1.373700E+01
+2.836900E+01,-1.373800E+01
+2.837900E+01,-1.372500E+01
+2.838900E+01,-1.374000E+01
+2.839900E+01,-1.372200E+01
+2.840900E+01,-1.373100E+01
+2.841900E+01,-1.372800E+01
+2.842900E+01,-1.372700E+01
+2.843900E+01,-1.373400E+01
+2.844900E+01,-1.372600E+01
+2.845900E+01,-1.373400E+01
+2.846900E+01,-1.372900E+01
+2.847900E+01,-1.373200E+01
+2.848900E+01,-1.373200E+01
+2.849900E+01,-1.373100E+01
+2.850900E+01,-1.373300E+01
+2.851900E+01,-1.372800E+01
+2.852900E+01,-1.373100E+01
+2.853900E+01,-1.373100E+01
+2.854900E+01,-1.373100E+01
+2.855900E+01,-1.373100E+01
+2.856900E+01,-1.373000E+01
+2.857900E+01,-1.373200E+01
+2.858900E+01,-1.372600E+01
+2.859900E+01,-1.373100E+01
+2.860900E+01,-1.373000E+01
+2.861900E+01,-1.372700E+01
+2.862900E+01,-1.373100E+01
+2.863900E+01,-1.372800E+01
+2.864900E+01,-1.373700E+01
+2.865900E+01,-1.373200E+01
+2.866900E+01,-1.373000E+01
+2.867900E+01,-1.372200E+01
+2.868900E+01,-1.372300E+01
+2.869900E+01,-1.372500E+01
+2.870900E+01,-1.373300E+01
+2.871900E+01,-1.373300E+01
+2.872900E+01,-1.373100E+01
+2.873900E+01,-1.372400E+01
+2.874900E+01,-1.372800E+01
+2.875900E+01,-1.373300E+01
+2.876900E+01,-1.372900E+01
+2.877900E+01,-1.372500E+01
+2.878900E+01,-1.372400E+01
+2.879900E+01,-1.372800E+01
+2.880900E+01,-1.373200E+01
+2.881900E+01,-1.372600E+01
+2.882900E+01,-1.373700E+01
+2.883900E+01,-1.373400E+01
+2.884900E+01,-1.372400E+01
+2.885900E+01,-1.373100E+01
+2.886900E+01,-1.373100E+01
+2.887900E+01,-1.372800E+01
+2.888900E+01,-1.373100E+01
+2.889900E+01,-1.373000E+01
+2.890900E+01,-1.373600E+01
+2.891900E+01,-1.372800E+01
+2.892900E+01,-1.373200E+01
+2.893900E+01,-1.372600E+01
+2.894900E+01,-1.372500E+01
+2.895900E+01,-1.372900E+01
+2.896900E+01,-1.373300E+01
+2.897900E+01,-1.373500E+01
+2.898900E+01,-1.372500E+01
+2.899900E+01,-1.373000E+01
+2.900900E+01,-1.372800E+01
+2.901900E+01,-1.372900E+01
+2.902900E+01,-1.373200E+01
+2.903900E+01,-1.373000E+01
+2.904900E+01,-1.372600E+01
+2.905900E+01,-1.373000E+01
+2.906900E+01,-1.373400E+01
+2.907900E+01,-1.373200E+01
+2.908900E+01,-1.373100E+01
+2.909900E+01,-1.372900E+01
+2.910900E+01,-1.373100E+01
+2.911900E+01,-1.373000E+01
+2.912900E+01,-1.373500E+01
+2.913900E+01,-1.373100E+01
+2.914900E+01,-1.372800E+01
+2.915900E+01,-1.373600E+01
+2.916900E+01,-1.372500E+01
+2.917900E+01,-1.373300E+01
+2.918900E+01,-1.372400E+01
+2.919900E+01,-1.372900E+01
+2.920900E+01,-1.373100E+01
+2.921900E+01,-1.372400E+01
+2.922900E+01,-1.373600E+01
+2.923900E+01,-1.371700E+01
+2.924900E+01,-1.374400E+01
+2.925900E+01,-1.372800E+01
+2.926900E+01,-1.373700E+01
+2.927900E+01,-1.374000E+01
+2.928900E+01,-1.372600E+01
+2.929900E+01,-1.374600E+01
+2.930900E+01,-1.371700E+01
+2.931900E+01,-1.373800E+01
+2.932900E+01,-1.372200E+01
+2.933900E+01,-1.373100E+01
+2.934900E+01,-1.373100E+01
+2.935900E+01,-1.372000E+01
+2.936900E+01,-1.374100E+01
+2.937900E+01,-1.371700E+01
+2.938900E+01,-1.374100E+01
+2.939900E+01,-1.372900E+01
+2.940900E+01,-1.373600E+01
+2.941900E+01,-1.373600E+01
+2.942900E+01,-1.372900E+01
+2.943900E+01,-1.373800E+01
+2.944900E+01,-1.372700E+01
+2.945900E+01,-1.373600E+01
+2.946900E+01,-1.372800E+01
+2.947900E+01,-1.372900E+01
+2.948900E+01,-1.373100E+01
+2.949900E+01,-1.372700E+01
+2.950900E+01,-1.373400E+01
+2.951900E+01,-1.372800E+01
+2.952900E+01,-1.373200E+01
+2.953900E+01,-1.373000E+01
+2.954900E+01,-1.373000E+01
+2.955900E+01,-1.372900E+01
+2.956900E+01,-1.372800E+01
+2.957900E+01,-1.372900E+01
+2.958900E+01,-1.372900E+01
+2.959900E+01,-1.373000E+01
+2.960900E+01,-1.373100E+01
+2.961900E+01,-1.373000E+01
+2.962900E+01,-1.372900E+01
+2.963900E+01,-1.372700E+01
+2.964900E+01,-1.372700E+01
+2.965900E+01,-1.372700E+01
+2.966900E+01,-1.373000E+01
+2.967900E+01,-1.373000E+01
+2.968900E+01,-1.372800E+01
+2.969900E+01,-1.373100E+01
+2.970900E+01,-1.372800E+01
+2.971900E+01,-1.372900E+01
+2.972900E+01,-1.373100E+01
+2.973900E+01,-1.373000E+01
+2.974900E+01,-1.372900E+01
+2.975900E+01,-1.373100E+01
+2.976900E+01,-1.373100E+01
+2.977900E+01,-1.373000E+01
+2.978900E+01,-1.372800E+01
+2.979900E+01,-1.373000E+01
+2.980900E+01,-1.373100E+01
+2.981900E+01,-1.373100E+01
+2.982900E+01,-1.373200E+01
+2.983900E+01,-1.373200E+01
+2.984900E+01,-1.373100E+01
+2.985900E+01,-1.373100E+01
+2.986900E+01,-1.373200E+01
+2.987900E+01,-1.373100E+01
+2.988900E+01,-1.373200E+01
+2.989900E+01,-1.373100E+01
+2.990900E+01,-1.373200E+01
+2.991900E+01,-1.373100E+01
+2.992900E+01,-1.373100E+01
+2.993900E+01,-1.373100E+01
+2.994900E+01,-1.373000E+01
+2.995900E+01,-1.372800E+01
+2.996900E+01,-1.373000E+01
+2.997900E+01,-1.373200E+01
+2.998900E+01,-1.373100E+01
+2.999900E+01,-1.373100E+01
+3.000900E+01,-1.373200E+01
+3.001900E+01,-1.373200E+01
+3.002900E+01,-1.373100E+01
+3.003900E+01,-1.373100E+01
+3.004900E+01,-1.373200E+01
+3.005900E+01,-1.373100E+01
+3.006900E+01,-1.373000E+01
+3.007900E+01,-1.372900E+01
+3.008900E+01,-1.373400E+01
+3.009900E+01,-1.373100E+01
+3.010900E+01,-1.373300E+01
+3.011900E+01,-1.373200E+01
+3.012900E+01,-1.373200E+01
+3.013900E+01,-1.373400E+01
+3.014900E+01,-1.372900E+01
+3.015900E+01,-1.372900E+01
+3.016900E+01,-1.372800E+01
+3.017900E+01,-1.373100E+01
+3.018900E+01,-1.373100E+01
+3.019900E+01,-1.372700E+01
+3.020900E+01,-1.373700E+01
+3.021900E+01,-1.372300E+01
+3.022900E+01,-1.373700E+01
+3.023900E+01,-1.372800E+01
+3.024900E+01,-1.373600E+01
+3.025900E+01,-1.373300E+01
+3.026900E+01,-1.372600E+01
+3.027900E+01,-1.373600E+01
+3.028900E+01,-1.372400E+01
+3.029900E+01,-1.374100E+01
+3.030900E+01,-1.371500E+01
+3.031900E+01,-1.373000E+01
+3.032900E+01,-1.372200E+01
+3.033900E+01,-1.372100E+01
+3.034900E+01,-1.373900E+01
+3.035900E+01,-1.372300E+01
+3.036900E+01,-1.375000E+01
+3.037900E+01,-1.373100E+01
+3.038900E+01,-1.374200E+01
+3.039900E+01,-1.373800E+01
+3.040900E+01,-1.373500E+01
+3.041900E+01,-1.374400E+01
+3.042900E+01,-1.373200E+01
+3.043900E+01,-1.374600E+01
+3.044900E+01,-1.372800E+01
+3.045900E+01,-1.373100E+01
+3.046900E+01,-1.372100E+01
+3.047900E+01,-1.373000E+01
+3.048900E+01,-1.373200E+01
+3.049900E+01,-1.372600E+01
+3.050900E+01,-1.373200E+01
+3.051900E+01,-1.373000E+01
+3.052900E+01,-1.373500E+01
+3.053900E+01,-1.373400E+01
+3.054900E+01,-1.374000E+01
+3.055900E+01,-1.373400E+01
+3.056900E+01,-1.373600E+01
+3.057900E+01,-1.373100E+01
+3.058900E+01,-1.373500E+01
+3.059900E+01,-1.373400E+01
+3.060900E+01,-1.373600E+01
+3.061900E+01,-1.373600E+01
+3.062900E+01,-1.372600E+01
+3.063900E+01,-1.373000E+01
+3.064900E+01,-1.373000E+01
+3.065900E+01,-1.373900E+01
+3.066900E+01,-1.373100E+01
+3.067900E+01,-1.373400E+01
+3.068900E+01,-1.373100E+01
+3.069900E+01,-1.373500E+01
+3.070900E+01,-1.373200E+01
+3.071900E+01,-1.373000E+01
+3.072900E+01,-1.373400E+01
+3.073900E+01,-1.373500E+01
+3.074900E+01,-1.373100E+01
+3.075900E+01,-1.373200E+01
+3.076900E+01,-1.373200E+01
+3.077900E+01,-1.373200E+01
+3.078900E+01,-1.372800E+01
+3.079900E+01,-1.373100E+01
+3.080900E+01,-1.373100E+01
+3.081900E+01,-1.373200E+01
+3.082900E+01,-1.373000E+01
+3.083900E+01,-1.373000E+01
+3.084900E+01,-1.373100E+01
+3.085900E+01,-1.373000E+01
+3.086900E+01,-1.373000E+01
+3.087900E+01,-1.373000E+01
+3.088900E+01,-1.372800E+01
+3.089900E+01,-1.373000E+01
+3.090900E+01,-1.373100E+01
+3.091900E+01,-1.373200E+01
+3.092900E+01,-1.373000E+01
+3.093900E+01,-1.372900E+01
+3.094900E+01,-1.372900E+01
+3.095900E+01,-1.372800E+01
+3.096900E+01,-1.373000E+01
+3.097900E+01,-1.373100E+01
+3.098900E+01,-1.373000E+01
+3.099900E+01,-1.373100E+01
+3.100900E+01,-1.373000E+01
+3.101900E+01,-1.373000E+01
+3.102900E+01,-1.373000E+01
+3.103900E+01,-1.373100E+01
+3.104900E+01,-1.372900E+01
+3.105900E+01,-1.373100E+01
+3.106900E+01,-1.372900E+01
+3.107900E+01,-1.373100E+01
+3.108900E+01,-1.373200E+01
+3.109900E+01,-1.372600E+01
+3.110900E+01,-1.372900E+01
+3.111900E+01,-1.373000E+01
+3.112900E+01,-1.372800E+01
+3.113900E+01,-1.372800E+01
+3.114900E+01,-1.372600E+01
+3.115900E+01,-1.373100E+01
+3.116900E+01,-1.372400E+01
+3.117900E+01,-1.372800E+01
+3.118900E+01,-1.372600E+01
+3.119900E+01,-1.372700E+01
+3.120900E+01,-1.373000E+01
+3.121900E+01,-1.372600E+01
+3.122900E+01,-1.373300E+01
+3.123900E+01,-1.371900E+01
+3.124900E+01,-1.373500E+01
+3.125900E+01,-1.371600E+01
+3.126900E+01,-1.371600E+01
+3.127900E+01,-1.373400E+01
+3.128900E+01,-1.371800E+01
+3.129900E+01,-1.373100E+01
+3.130900E+01,-1.372000E+01
+3.131900E+01,-1.372200E+01
+3.132900E+01,-1.372600E+01
+3.133900E+01,-1.371400E+01
+3.134900E+01,-1.373900E+01
+3.135900E+01,-1.371500E+01
+3.136900E+01,-1.374300E+01
+3.137900E+01,-1.371900E+01
+3.138900E+01,-1.373900E+01
+3.139900E+01,-1.373000E+01
+3.140900E+01,-1.372600E+01
+3.141900E+01,-1.373900E+01
+3.142900E+01,-1.371900E+01
+3.143900E+01,-1.373800E+01
+3.144900E+01,-1.371600E+01
+3.145900E+01,-1.373000E+01
+3.146900E+01,-1.372100E+01
+3.147900E+01,-1.372500E+01
+3.148900E+01,-1.372700E+01
+3.149900E+01,-1.372300E+01
+3.150900E+01,-1.373100E+01
+3.151900E+01,-1.372100E+01
+3.152900E+01,-1.373400E+01
+3.153900E+01,-1.372500E+01
+3.154900E+01,-1.373000E+01
+3.155900E+01,-1.373000E+01
+3.156900E+01,-1.372900E+01
+3.157900E+01,-1.373000E+01
+3.158900E+01,-1.372700E+01
+3.159900E+01,-1.373100E+01
+3.160900E+01,-1.372900E+01
+3.161900E+01,-1.372800E+01
+3.162900E+01,-1.373000E+01
+3.163900E+01,-1.373000E+01
+3.164900E+01,-1.373000E+01
+3.165900E+01,-1.373100E+01
+3.166900E+01,-1.373000E+01
+3.167900E+01,-1.373100E+01
+3.168900E+01,-1.372600E+01
+3.169900E+01,-1.372700E+01
+3.170900E+01,-1.373000E+01
+3.171900E+01,-1.373100E+01
+3.172900E+01,-1.373000E+01
+3.173900E+01,-1.372900E+01
+3.174900E+01,-1.372800E+01
+3.175900E+01,-1.373000E+01
+3.176900E+01,-1.373200E+01
+3.177900E+01,-1.372600E+01
+3.178900E+01,-1.372500E+01
+3.179900E+01,-1.373000E+01
+3.180900E+01,-1.373100E+01
+3.181900E+01,-1.373500E+01
+3.182900E+01,-1.372700E+01
+3.183900E+01,-1.372600E+01
+3.184900E+01,-1.372800E+01
+3.185900E+01,-1.372700E+01
+3.186900E+01,-1.372500E+01
+3.187900E+01,-1.372800E+01
+3.188900E+01,-1.372000E+01
+3.189900E+01,-1.373300E+01
+3.190900E+01,-1.372700E+01
+3.191900E+01,-1.372900E+01
+3.192900E+01,-1.372800E+01
+3.193900E+01,-1.372000E+01
+3.194900E+01,-1.373000E+01
+3.195900E+01,-1.373400E+01
+3.196900E+01,-1.372700E+01
+3.197900E+01,-1.373600E+01
+3.198900E+01,-1.374300E+01
+3.199900E+01,-1.372900E+01
+3.200900E+01,-1.373200E+01
+3.201900E+01,-1.372900E+01
+3.202900E+01,-1.372400E+01
+3.203900E+01,-1.372700E+01
+3.204900E+01,-1.373300E+01
+3.205900E+01,-1.374000E+01
+3.206900E+01,-1.372900E+01
+3.207900E+01,-1.372400E+01
+3.208900E+01,-1.372300E+01
+3.209900E+01,-1.372600E+01
+3.210900E+01,-1.373100E+01
+3.211900E+01,-1.372900E+01
+3.212900E+01,-1.373200E+01
+3.213900E+01,-1.373500E+01
+3.214900E+01,-1.373300E+01
+3.215900E+01,-1.373000E+01
+3.216900E+01,-1.373400E+01
+3.217900E+01,-1.373000E+01
+3.218900E+01,-1.373100E+01
+3.219900E+01,-1.373200E+01
+3.220900E+01,-1.373300E+01
+3.221900E+01,-1.373100E+01
+3.222900E+01,-1.374000E+01
+3.223900E+01,-1.372700E+01
+3.224900E+01,-1.373600E+01
+3.225900E+01,-1.372600E+01
+3.226900E+01,-1.372400E+01
+3.227900E+01,-1.372900E+01
+3.228900E+01,-1.372100E+01
+3.229900E+01,-1.374100E+01
+3.230900E+01,-1.372300E+01
+3.231900E+01,-1.374100E+01
+3.232900E+01,-1.372000E+01
+3.233900E+01,-1.374000E+01
+3.234900E+01,-1.373800E+01
+3.235900E+01,-1.373300E+01
+3.236900E+01,-1.374100E+01
+3.237900E+01,-1.372400E+01
+3.238900E+01,-1.374700E+01
+3.239900E+01,-1.371400E+01
+3.240900E+01,-1.373500E+01
+3.241900E+01,-1.372500E+01
+3.242900E+01,-1.372900E+01
+3.243900E+01,-1.374000E+01
+3.244900E+01,-1.372200E+01
+3.245900E+01,-1.373800E+01
+3.246900E+01,-1.372100E+01
+3.247900E+01,-1.374300E+01
+3.248900E+01,-1.372800E+01
+3.249900E+01,-1.373900E+01
+3.250900E+01,-1.373300E+01
+3.251900E+01,-1.373400E+01
+3.252900E+01,-1.373700E+01
+3.253900E+01,-1.372900E+01
+3.254900E+01,-1.373700E+01
+3.255900E+01,-1.372700E+01
+3.256900E+01,-1.373300E+01
+3.257900E+01,-1.373100E+01
+3.258900E+01,-1.373000E+01
+3.259900E+01,-1.373300E+01
+3.260900E+01,-1.373200E+01
+3.261900E+01,-1.373300E+01
+3.262900E+01,-1.373100E+01
+3.263900E+01,-1.373200E+01
+3.264900E+01,-1.373200E+01
+3.265900E+01,-1.373500E+01
+3.266900E+01,-1.373400E+01
+3.267900E+01,-1.373400E+01
+3.268900E+01,-1.373300E+01
+3.269900E+01,-1.373400E+01
+3.270900E+01,-1.373300E+01
+3.271900E+01,-1.373500E+01
+3.272900E+01,-1.373600E+01
+3.273900E+01,-1.373200E+01
+3.274900E+01,-1.373400E+01
+3.275900E+01,-1.373500E+01
+3.276900E+01,-1.373500E+01
+3.277900E+01,-1.373500E+01
+3.278900E+01,-1.373500E+01
+3.279900E+01,-1.373400E+01
+3.280900E+01,-1.373500E+01
+3.281900E+01,-1.373100E+01
+3.282900E+01,-1.373500E+01
+3.283900E+01,-1.373400E+01
+3.284900E+01,-1.373300E+01
+3.285900E+01,-1.373600E+01
+3.286900E+01,-1.373500E+01
+3.287900E+01,-1.373300E+01
+3.288900E+01,-1.373300E+01
+3.289900E+01,-1.373600E+01
+3.290900E+01,-1.373400E+01
+3.291900E+01,-1.373400E+01
+3.292900E+01,-1.373600E+01
+3.293900E+01,-1.373300E+01
+3.294900E+01,-1.373500E+01
+3.295900E+01,-1.373300E+01
+3.296900E+01,-1.373400E+01
+3.297900E+01,-1.373500E+01
+3.298900E+01,-1.373400E+01
+3.299900E+01,-1.373300E+01
+3.300900E+01,-1.373500E+01
+3.301900E+01,-1.373400E+01
+3.302900E+01,-1.373600E+01
+3.303900E+01,-1.373300E+01
+3.304900E+01,-1.373400E+01
+3.305900E+01,-1.373500E+01
+3.306900E+01,-1.373600E+01
+3.307900E+01,-1.373700E+01
+3.308900E+01,-1.373900E+01
+3.309900E+01,-1.374000E+01
+3.310900E+01,-1.373800E+01
+3.311900E+01,-1.374000E+01
+3.312900E+01,-1.374000E+01
+3.313900E+01,-1.373700E+01
+3.314900E+01,-1.374000E+01
+3.315900E+01,-1.373700E+01
+3.316900E+01,-1.373800E+01
+3.317900E+01,-1.373900E+01
+3.318900E+01,-1.373600E+01
+3.319900E+01,-1.374000E+01
+3.320900E+01,-1.373600E+01
+3.321900E+01,-1.373700E+01
+3.322900E+01,-1.373700E+01
+3.323900E+01,-1.373700E+01
+3.324900E+01,-1.373600E+01
+3.325900E+01,-1.373600E+01
+3.326900E+01,-1.374000E+01
+3.327900E+01,-1.372900E+01
+3.328900E+01,-1.374300E+01
+3.329900E+01,-1.372800E+01
+3.330900E+01,-1.373900E+01
+3.331900E+01,-1.372900E+01
+3.332900E+01,-1.373100E+01
+3.333900E+01,-1.373300E+01
+3.334900E+01,-1.373000E+01
+3.335900E+01,-1.374300E+01
+3.336900E+01,-1.372400E+01
+3.337900E+01,-1.374800E+01
+3.338900E+01,-1.372200E+01
+3.339900E+01,-1.375200E+01
+3.340900E+01,-1.372800E+01
+3.341900E+01,-1.374700E+01
+3.342900E+01,-1.373600E+01
+3.343900E+01,-1.374900E+01
+3.344900E+01,-1.374100E+01
+3.345900E+01,-1.373900E+01
+3.346900E+01,-1.374700E+01
+3.347900E+01,-1.373500E+01
+3.348900E+01,-1.374800E+01
+3.349900E+01,-1.372700E+01
+3.350900E+01,-1.374500E+01
+3.351900E+01,-1.372700E+01
+3.352900E+01,-1.373200E+01
+3.353900E+01,-1.373600E+01
+3.354900E+01,-1.374300E+01
+3.355900E+01,-1.374400E+01
+3.356900E+01,-1.374600E+01
+3.357900E+01,-1.374500E+01
+3.358900E+01,-1.373600E+01
+3.359900E+01,-1.374100E+01
+3.360900E+01,-1.373800E+01
+3.361900E+01,-1.373500E+01
+3.362900E+01,-1.374000E+01
+3.363900E+01,-1.374000E+01
+3.364900E+01,-1.374200E+01
+3.365900E+01,-1.373900E+01
+3.366900E+01,-1.373900E+01
+3.367900E+01,-1.374100E+01
+3.368900E+01,-1.373700E+01
+3.369900E+01,-1.373200E+01
+3.370900E+01,-1.373800E+01
+3.371900E+01,-1.373900E+01
+3.372900E+01,-1.374500E+01
+3.373900E+01,-1.374100E+01
+3.374900E+01,-1.374600E+01
+3.375900E+01,-1.374900E+01
+3.376900E+01,-1.373200E+01
+3.377900E+01,-1.374100E+01
+3.378900E+01,-1.373500E+01
+3.379900E+01,-1.374400E+01
+3.380900E+01,-1.373900E+01
+3.381900E+01,-1.374400E+01
+3.382900E+01,-1.374100E+01
+3.383900E+01,-1.373600E+01
+3.384900E+01,-1.373700E+01
+3.385900E+01,-1.373800E+01
+3.386900E+01,-1.373900E+01
+3.387900E+01,-1.373500E+01
+3.388900E+01,-1.374000E+01
+3.389900E+01,-1.374200E+01
+3.390900E+01,-1.374100E+01
+3.391900E+01,-1.373300E+01
+3.392900E+01,-1.373600E+01
+3.393900E+01,-1.373600E+01
+3.394900E+01,-1.373500E+01
+3.395900E+01,-1.373500E+01
+3.396900E+01,-1.373700E+01
+3.397900E+01,-1.373600E+01
+3.398900E+01,-1.373600E+01
+3.399900E+01,-1.373500E+01
+3.400900E+01,-1.373800E+01
+3.401900E+01,-1.373800E+01
+3.402900E+01,-1.373500E+01
+3.403900E+01,-1.374100E+01
+3.404900E+01,-1.373800E+01
+3.405900E+01,-1.373900E+01
+3.406900E+01,-1.373600E+01
+3.407900E+01,-1.373500E+01
+3.408900E+01,-1.374100E+01
+3.409900E+01,-1.374000E+01
+3.410900E+01,-1.373700E+01
+3.411900E+01,-1.373800E+01
+3.412900E+01,-1.374000E+01
+3.413900E+01,-1.373600E+01
+3.414900E+01,-1.373800E+01
+3.415900E+01,-1.373900E+01
+3.416900E+01,-1.373900E+01
+3.417900E+01,-1.373600E+01
+3.418900E+01,-1.374000E+01
+3.419900E+01,-1.373800E+01
+3.420900E+01,-1.373900E+01
+3.421900E+01,-1.373600E+01
+3.422900E+01,-1.374000E+01
+3.423900E+01,-1.374000E+01
+3.424900E+01,-1.373600E+01
+3.425900E+01,-1.373800E+01
+3.426900E+01,-1.373700E+01
+3.427900E+01,-1.374300E+01
+3.428900E+01,-1.373000E+01
+3.429900E+01,-1.374400E+01
+3.430900E+01,-1.373000E+01
+3.431900E+01,-1.374400E+01
+3.432900E+01,-1.372600E+01
+3.433900E+01,-1.374300E+01
+3.434900E+01,-1.373000E+01
+3.435900E+01,-1.373900E+01
+3.436900E+01,-1.373000E+01
+3.437900E+01,-1.373500E+01
+3.438900E+01,-1.373800E+01
+3.439900E+01,-1.372600E+01
+3.440900E+01,-1.374400E+01
+3.441900E+01,-1.372300E+01
+3.442900E+01,-1.374600E+01
+3.443900E+01,-1.372500E+01
+3.444900E+01,-1.374800E+01
+3.445900E+01,-1.372300E+01
+3.446900E+01,-1.374900E+01
+3.447900E+01,-1.372900E+01
+3.448900E+01,-1.374400E+01
+3.449900E+01,-1.373600E+01
+3.450900E+01,-1.373600E+01
+3.451900E+01,-1.374300E+01
+3.452900E+01,-1.373900E+01
+3.453900E+01,-1.373700E+01
+3.454900E+01,-1.373800E+01
+3.455900E+01,-1.373500E+01
+3.456900E+01,-1.374100E+01
+3.457900E+01,-1.373200E+01
+3.458900E+01,-1.374000E+01
+3.459900E+01,-1.373100E+01
+3.460900E+01,-1.373600E+01
+3.461900E+01,-1.373300E+01
+3.462900E+01,-1.373700E+01
+3.463900E+01,-1.373900E+01
+3.464900E+01,-1.373700E+01
+3.465900E+01,-1.373600E+01
+3.466900E+01,-1.373600E+01
+3.467900E+01,-1.373600E+01
+3.468900E+01,-1.373700E+01
+3.469900E+01,-1.373600E+01
+3.470900E+01,-1.373500E+01
+3.471900E+01,-1.373600E+01
+3.472900E+01,-1.373600E+01
+3.473900E+01,-1.373600E+01
+3.474900E+01,-1.373700E+01
+3.475900E+01,-1.373800E+01
+3.476900E+01,-1.373700E+01
+3.477900E+01,-1.373700E+01
+3.478900E+01,-1.373600E+01
+3.479900E+01,-1.373900E+01
+3.480900E+01,-1.373600E+01
+3.481900E+01,-1.373900E+01
+3.482900E+01,-1.373800E+01
+3.483900E+01,-1.373900E+01
+3.484900E+01,-1.373800E+01
+3.485900E+01,-1.373700E+01
+3.486900E+01,-1.373500E+01
+3.487900E+01,-1.373600E+01
+3.488900E+01,-1.373800E+01
+3.489900E+01,-1.373800E+01
+3.490900E+01,-1.374000E+01
+3.491900E+01,-1.373700E+01
+3.492900E+01,-1.374400E+01
+3.493900E+01,-1.374000E+01
+3.494900E+01,-1.374200E+01
+3.495900E+01,-1.374100E+01
+3.496900E+01,-1.374300E+01
+3.497900E+01,-1.374000E+01
+3.498900E+01,-1.373500E+01
+3.499900E+01,-1.374100E+01
+3.500900E+01,-1.374200E+01
+3.501900E+01,-1.374300E+01
+3.502900E+01,-1.374200E+01
+3.503900E+01,-1.374100E+01
+3.504900E+01,-1.373900E+01
+3.505900E+01,-1.374200E+01
+3.506900E+01,-1.374200E+01
+3.507900E+01,-1.374800E+01
+3.508900E+01,-1.374700E+01
+3.509900E+01,-1.374500E+01
+3.510900E+01,-1.374400E+01
+3.511900E+01,-1.374300E+01
+3.512900E+01,-1.374400E+01
+3.513900E+01,-1.373800E+01
+3.514900E+01,-1.374100E+01
+3.515900E+01,-1.373300E+01
+3.516900E+01,-1.374000E+01
+3.517900E+01,-1.374100E+01
+3.518900E+01,-1.374000E+01
+3.519900E+01,-1.373600E+01
+3.520900E+01,-1.373600E+01
+3.521900E+01,-1.373600E+01
+3.522900E+01,-1.374100E+01
+3.523900E+01,-1.373800E+01
+3.524900E+01,-1.373900E+01
+3.525900E+01,-1.374600E+01
+3.526900E+01,-1.374600E+01
+3.527900E+01,-1.373500E+01
+3.528900E+01,-1.374800E+01
+3.529900E+01,-1.374200E+01
+3.530900E+01,-1.374900E+01
+3.531900E+01,-1.373100E+01
+3.532900E+01,-1.374500E+01
+3.533900E+01,-1.373900E+01
+3.534900E+01,-1.374100E+01
+3.535900E+01,-1.373600E+01
+3.536900E+01,-1.374800E+01
+3.537900E+01,-1.374400E+01
+3.538900E+01,-1.373500E+01
+3.539900E+01,-1.374700E+01
+3.540900E+01,-1.373100E+01
+3.541900E+01,-1.374800E+01
+3.542900E+01,-1.373000E+01
+3.543900E+01,-1.374700E+01
+3.544900E+01,-1.373200E+01
+3.545900E+01,-1.374800E+01
+3.546900E+01,-1.373200E+01
+3.547900E+01,-1.374400E+01
+3.548900E+01,-1.373500E+01
+3.549900E+01,-1.374800E+01
+3.550900E+01,-1.373500E+01
+3.551900E+01,-1.374800E+01
+3.552900E+01,-1.373200E+01
+3.553900E+01,-1.374200E+01
+3.554900E+01,-1.373700E+01
+3.555900E+01,-1.374300E+01
+3.556900E+01,-1.373100E+01
+3.557900E+01,-1.374000E+01
+3.558900E+01,-1.373700E+01
+3.559900E+01,-1.374000E+01
+3.560900E+01,-1.374000E+01
+3.561900E+01,-1.374100E+01
+3.562900E+01,-1.374100E+01
+3.563900E+01,-1.374200E+01
+3.564900E+01,-1.373900E+01
+3.565900E+01,-1.374100E+01
+3.566900E+01,-1.374000E+01
+3.567900E+01,-1.374000E+01
+3.568900E+01,-1.373900E+01
+3.569900E+01,-1.373900E+01
+3.570900E+01,-1.373800E+01
+3.571900E+01,-1.374100E+01
+3.572900E+01,-1.374100E+01
+3.573900E+01,-1.374000E+01
+3.574900E+01,-1.373900E+01
+3.575900E+01,-1.374100E+01
+3.576900E+01,-1.374000E+01
+3.577900E+01,-1.374000E+01
+3.578900E+01,-1.374000E+01
+3.579900E+01,-1.374100E+01
+3.580900E+01,-1.374200E+01
+3.581900E+01,-1.374000E+01
+3.582900E+01,-1.374100E+01
+3.583900E+01,-1.374000E+01
+3.584900E+01,-1.374000E+01
+3.585900E+01,-1.374300E+01
+3.586900E+01,-1.374100E+01
+3.587900E+01,-1.374100E+01
+3.588900E+01,-1.374000E+01
+3.589900E+01,-1.374000E+01
+3.590900E+01,-1.373700E+01
+3.591900E+01,-1.373700E+01
+3.592900E+01,-1.374000E+01
+3.593900E+01,-1.374000E+01
+3.594900E+01,-1.374100E+01
+3.595900E+01,-1.374000E+01
+3.596900E+01,-1.373800E+01
+3.597900E+01,-1.374000E+01
+3.598900E+01,-1.373900E+01
+3.599900E+01,-1.373800E+01
+3.600900E+01,-1.374000E+01
+3.601900E+01,-1.373700E+01
+3.602900E+01,-1.373900E+01
+3.603900E+01,-1.374100E+01
+3.604900E+01,-1.374000E+01
+3.605900E+01,-1.373800E+01
+3.606900E+01,-1.374000E+01
+3.607900E+01,-1.373800E+01
+3.608900E+01,-1.373600E+01
+3.609900E+01,-1.374000E+01
+3.610900E+01,-1.373800E+01
+3.611900E+01,-1.373800E+01
+3.612900E+01,-1.373900E+01
+3.613900E+01,-1.374000E+01
+3.614900E+01,-1.373800E+01
+3.615900E+01,-1.373400E+01
+3.616900E+01,-1.373900E+01
+3.617900E+01,-1.374000E+01
+3.618900E+01,-1.374000E+01
+3.619900E+01,-1.373900E+01
+3.620900E+01,-1.373800E+01
+3.621900E+01,-1.374000E+01
+3.622900E+01,-1.373900E+01
+3.623900E+01,-1.374000E+01
+3.624900E+01,-1.373700E+01
+3.625900E+01,-1.373900E+01
+3.626900E+01,-1.373500E+01
+3.627900E+01,-1.374400E+01
+3.628900E+01,-1.373500E+01
+3.629900E+01,-1.374500E+01
+3.630900E+01,-1.373500E+01
+3.631900E+01,-1.374800E+01
+3.632900E+01,-1.373300E+01
+3.633900E+01,-1.375200E+01
+3.634900E+01,-1.373200E+01
+3.635900E+01,-1.375300E+01
+3.636900E+01,-1.372900E+01
+3.637900E+01,-1.375400E+01
+3.638900E+01,-1.373300E+01
+3.639900E+01,-1.375200E+01
+3.640900E+01,-1.374100E+01
+3.641900E+01,-1.375100E+01
+3.642900E+01,-1.374500E+01
+3.643900E+01,-1.374300E+01
+3.644900E+01,-1.374800E+01
+3.645900E+01,-1.373600E+01
+3.646900E+01,-1.375100E+01
+3.647900E+01,-1.373800E+01
+3.648900E+01,-1.375200E+01
+3.649900E+01,-1.373500E+01
+3.650900E+01,-1.375400E+01
+3.651900E+01,-1.373800E+01
+3.652900E+01,-1.374700E+01
+3.653900E+01,-1.373400E+01
+3.654900E+01,-1.374800E+01
+3.655900E+01,-1.373500E+01
+3.656900E+01,-1.374500E+01
+3.657900E+01,-1.374000E+01
+3.658900E+01,-1.374200E+01
+3.659900E+01,-1.373900E+01
+3.660900E+01,-1.373900E+01
+3.661900E+01,-1.374100E+01
+3.662900E+01,-1.374100E+01
+3.663900E+01,-1.374700E+01
+3.664900E+01,-1.374500E+01
+3.665900E+01,-1.374300E+01
+3.666900E+01,-1.373900E+01
+3.667900E+01,-1.374400E+01
+3.668900E+01,-1.374600E+01
+3.669900E+01,-1.374800E+01
+3.670900E+01,-1.374500E+01
+3.671900E+01,-1.374400E+01
+3.672900E+01,-1.373900E+01
+3.673900E+01,-1.374100E+01
+3.674900E+01,-1.374200E+01
+3.675900E+01,-1.373400E+01
+3.676900E+01,-1.374300E+01
+3.677900E+01,-1.374900E+01
+3.678900E+01,-1.374400E+01
+3.679900E+01,-1.373600E+01
+3.680900E+01,-1.373300E+01
+3.681900E+01,-1.373600E+01
+3.682900E+01,-1.373900E+01
+3.683900E+01,-1.374300E+01
+3.684900E+01,-1.373500E+01
+3.685900E+01,-1.373200E+01
+3.686900E+01,-1.373600E+01
+3.687900E+01,-1.374100E+01
+3.688900E+01,-1.374000E+01
+3.689900E+01,-1.373600E+01
+3.690900E+01,-1.374700E+01
+3.691900E+01,-1.374600E+01
+3.692900E+01,-1.374600E+01
+3.693900E+01,-1.374300E+01
+3.694900E+01,-1.374100E+01
+3.695900E+01,-1.373600E+01
+3.696900E+01,-1.374100E+01
+3.697900E+01,-1.374400E+01
+3.698900E+01,-1.374400E+01
+3.699900E+01,-1.374600E+01
+3.700900E+01,-1.375000E+01
+3.701900E+01,-1.373700E+01
+3.702900E+01,-1.373900E+01
+3.703900E+01,-1.373800E+01
+3.704900E+01,-1.374200E+01
+3.705900E+01,-1.373700E+01
+3.706900E+01,-1.374400E+01
+3.707900E+01,-1.373700E+01
+3.708900E+01,-1.373900E+01
+3.709900E+01,-1.374200E+01
+3.710900E+01,-1.374000E+01
+3.711900E+01,-1.374200E+01
+3.712900E+01,-1.373900E+01
+3.713900E+01,-1.374100E+01
+3.714900E+01,-1.373600E+01
+3.715900E+01,-1.373700E+01
+3.716900E+01,-1.374200E+01
+3.717900E+01,-1.374100E+01
+3.718900E+01,-1.374000E+01
+3.719900E+01,-1.373700E+01
+3.720900E+01,-1.374000E+01
+3.721900E+01,-1.374000E+01
+3.722900E+01,-1.374400E+01
+3.723900E+01,-1.373600E+01
+3.724900E+01,-1.374700E+01
+3.725900E+01,-1.373700E+01
+3.726900E+01,-1.374700E+01
+3.727900E+01,-1.373900E+01
+3.728900E+01,-1.374700E+01
+3.729900E+01,-1.374400E+01
+3.730900E+01,-1.374200E+01
+3.731900E+01,-1.374600E+01
+3.732900E+01,-1.374000E+01
+3.733900E+01,-1.374700E+01
+3.734900E+01,-1.373900E+01
+3.735900E+01,-1.375600E+01
+3.736900E+01,-1.373100E+01
+3.737900E+01,-1.375600E+01
+3.738900E+01,-1.372500E+01
+3.739900E+01,-1.375300E+01
+3.740900E+01,-1.373000E+01
+3.741900E+01,-1.374300E+01
+3.742900E+01,-1.373200E+01
+3.743900E+01,-1.374500E+01
+3.744900E+01,-1.373500E+01
+3.745900E+01,-1.373500E+01
+3.746900E+01,-1.374600E+01
+3.747900E+01,-1.373200E+01
+3.748900E+01,-1.374500E+01
+3.749900E+01,-1.373500E+01
+3.750900E+01,-1.374600E+01
+3.751900E+01,-1.373600E+01
+3.752900E+01,-1.374800E+01
+3.753900E+01,-1.373700E+01
+3.754900E+01,-1.374700E+01
+3.755900E+01,-1.374000E+01
+3.756900E+01,-1.374400E+01
+3.757900E+01,-1.374300E+01
+3.758900E+01,-1.374400E+01
+3.759900E+01,-1.374300E+01
+3.760900E+01,-1.374100E+01
+3.761900E+01,-1.374200E+01
+3.762900E+01,-1.374400E+01
+3.763900E+01,-1.374000E+01
+3.764900E+01,-1.374200E+01
+3.765900E+01,-1.374100E+01
+3.766900E+01,-1.374200E+01
+3.767900E+01,-1.374100E+01
+3.768900E+01,-1.374000E+01
+3.769900E+01,-1.374000E+01
+3.770900E+01,-1.374000E+01
+3.771900E+01,-1.374100E+01
+3.772900E+01,-1.374000E+01
+3.773900E+01,-1.374000E+01
+3.774900E+01,-1.373800E+01
+3.775900E+01,-1.374100E+01
+3.776900E+01,-1.374400E+01
+3.777900E+01,-1.374000E+01
+3.778900E+01,-1.374100E+01
+3.779900E+01,-1.374100E+01
+3.780900E+01,-1.374200E+01
+3.781900E+01,-1.374200E+01
+3.782900E+01,-1.374100E+01
+3.783900E+01,-1.374300E+01
+3.784900E+01,-1.374100E+01
+3.785900E+01,-1.374300E+01
+3.786900E+01,-1.374200E+01
+3.787900E+01,-1.374200E+01
+3.788900E+01,-1.374200E+01
+3.789900E+01,-1.374500E+01
+3.790900E+01,-1.374200E+01
+3.791900E+01,-1.374200E+01
+3.792900E+01,-1.374400E+01
+3.793900E+01,-1.374200E+01
+3.794900E+01,-1.374300E+01
+3.795900E+01,-1.374300E+01
+3.796900E+01,-1.374300E+01
+3.797900E+01,-1.374300E+01
+3.798900E+01,-1.374400E+01
+3.799900E+01,-1.374300E+01
+3.800900E+01,-1.374400E+01
+3.801900E+01,-1.374300E+01
+3.802900E+01,-1.374400E+01
+3.803900E+01,-1.374200E+01
+3.804900E+01,-1.374600E+01
+3.805900E+01,-1.374100E+01
+3.806900E+01,-1.374100E+01
+3.807900E+01,-1.374400E+01
+3.808900E+01,-1.374500E+01
+3.809900E+01,-1.374400E+01
+3.810900E+01,-1.374200E+01
+3.811900E+01,-1.374500E+01
+3.812900E+01,-1.374100E+01
+3.813900E+01,-1.374400E+01
+3.814900E+01,-1.374200E+01
+3.815900E+01,-1.374100E+01
+3.816900E+01,-1.374500E+01
+3.817900E+01,-1.374400E+01
+3.818900E+01,-1.374000E+01
+3.819900E+01,-1.374400E+01
+3.820900E+01,-1.373800E+01
+3.821900E+01,-1.374200E+01
+3.822900E+01,-1.373900E+01
+3.823900E+01,-1.375000E+01
+3.824900E+01,-1.373600E+01
+3.825900E+01,-1.374700E+01
+3.826900E+01,-1.373600E+01
+3.827900E+01,-1.374700E+01
+3.828900E+01,-1.373700E+01
+3.829900E+01,-1.373300E+01
+3.830900E+01,-1.374200E+01
+3.831900E+01,-1.373600E+01
+3.832900E+01,-1.374600E+01
+3.833900E+01,-1.372900E+01
+3.834900E+01,-1.375100E+01
+3.835900E+01,-1.372800E+01
+3.836900E+01,-1.375800E+01
+3.837900E+01,-1.373800E+01
+3.838900E+01,-1.376000E+01
+3.839900E+01,-1.375500E+01
+3.840900E+01,-1.374000E+01
+3.841900E+01,-1.374500E+01
+3.842900E+01,-1.373800E+01
+3.843900E+01,-1.375100E+01
+3.844900E+01,-1.374000E+01
+3.845900E+01,-1.375300E+01
+3.846900E+01,-1.373600E+01
+3.847900E+01,-1.374800E+01
+3.848900E+01,-1.372500E+01
+3.849900E+01,-1.374400E+01
+3.850900E+01,-1.374300E+01
+3.851900E+01,-1.373900E+01
+3.852900E+01,-1.373700E+01
+3.853900E+01,-1.373600E+01
+3.854900E+01,-1.373700E+01
+3.855900E+01,-1.374300E+01
+3.856900E+01,-1.374400E+01
+3.857900E+01,-1.374900E+01
+3.858900E+01,-1.374700E+01
+3.859900E+01,-1.374700E+01
+3.860900E+01,-1.373700E+01
+3.861900E+01,-1.373700E+01
+3.862900E+01,-1.374100E+01
+3.863900E+01,-1.374100E+01
+3.864900E+01,-1.374100E+01
+3.865900E+01,-1.374200E+01
+3.866900E+01,-1.374300E+01
+3.867900E+01,-1.374500E+01
+3.868900E+01,-1.374700E+01
+3.869900E+01,-1.374500E+01
+3.870900E+01,-1.374600E+01
+3.871900E+01,-1.373900E+01
+3.872900E+01,-1.374100E+01
+3.873900E+01,-1.374100E+01
+3.874900E+01,-1.374200E+01
+3.875900E+01,-1.374100E+01
+3.876900E+01,-1.373800E+01
+3.877900E+01,-1.374100E+01
+3.878900E+01,-1.374300E+01
+3.879900E+01,-1.374000E+01
+3.880900E+01,-1.374100E+01
+3.881900E+01,-1.374100E+01
+3.882900E+01,-1.374300E+01
+3.883900E+01,-1.374100E+01
+3.884900E+01,-1.374300E+01
+3.885900E+01,-1.374100E+01
+3.886900E+01,-1.374200E+01
+3.887900E+01,-1.373800E+01
+3.888900E+01,-1.374000E+01
+3.889900E+01,-1.374200E+01
+3.890900E+01,-1.374000E+01
+3.891900E+01,-1.374100E+01
+3.892900E+01,-1.374000E+01
+3.893900E+01,-1.374100E+01
+3.894900E+01,-1.374100E+01
+3.895900E+01,-1.374100E+01
+3.896900E+01,-1.374300E+01
+3.897900E+01,-1.374000E+01
+3.898900E+01,-1.373900E+01
+3.899900E+01,-1.374100E+01
+3.900900E+01,-1.374100E+01
+3.901900E+01,-1.374000E+01
+3.902900E+01,-1.374100E+01
+3.903900E+01,-1.373900E+01
+3.904900E+01,-1.374000E+01
+3.905900E+01,-1.374100E+01
+3.906900E+01,-1.373900E+01
+3.907900E+01,-1.373900E+01
+3.908900E+01,-1.374100E+01
+3.909900E+01,-1.374000E+01
+3.910900E+01,-1.374300E+01
+3.911900E+01,-1.374400E+01
+3.912900E+01,-1.374300E+01
+3.913900E+01,-1.374200E+01
+3.914900E+01,-1.374300E+01
+3.915900E+01,-1.374200E+01
+3.916900E+01,-1.374200E+01
+3.917900E+01,-1.374000E+01
+3.918900E+01,-1.374400E+01
+3.919900E+01,-1.373800E+01
+3.920900E+01,-1.374300E+01
+3.921900E+01,-1.373600E+01
+3.922900E+01,-1.373900E+01
+3.923900E+01,-1.373800E+01
+3.924900E+01,-1.373500E+01
+3.925900E+01,-1.374400E+01
+3.926900E+01,-1.373200E+01
+3.927900E+01,-1.374800E+01
+3.928900E+01,-1.373200E+01
+3.929900E+01,-1.375300E+01
+3.930900E+01,-1.373800E+01
+3.931900E+01,-1.374900E+01
+3.932900E+01,-1.374700E+01
+3.933900E+01,-1.374100E+01
+3.934900E+01,-1.375200E+01
+3.935900E+01,-1.375200E+01
+3.936900E+01,-1.373400E+01
+3.937900E+01,-1.375800E+01
+3.938900E+01,-1.372900E+01
+3.939900E+01,-1.375400E+01
+3.940900E+01,-1.373500E+01
+3.941900E+01,-1.374400E+01
+3.942900E+01,-1.373600E+01
+3.943900E+01,-1.373600E+01
+3.944900E+01,-1.374400E+01
+3.945900E+01,-1.373100E+01
+3.946900E+01,-1.375200E+01
+3.947900E+01,-1.373600E+01
+3.948900E+01,-1.375100E+01
+3.949900E+01,-1.374200E+01
+3.950900E+01,-1.374500E+01
+3.951900E+01,-1.374500E+01
+3.952900E+01,-1.374100E+01
+3.953900E+01,-1.375000E+01
+3.954900E+01,-1.374100E+01
+3.955900E+01,-1.374600E+01
+3.956900E+01,-1.374200E+01
+3.957900E+01,-1.374400E+01
+3.958900E+01,-1.374300E+01
+3.959900E+01,-1.374100E+01
+3.960900E+01,-1.374500E+01
+3.961900E+01,-1.374400E+01
+3.962900E+01,-1.374100E+01
+3.963900E+01,-1.374300E+01
+3.964900E+01,-1.374300E+01
+3.965900E+01,-1.374400E+01
+3.966900E+01,-1.374100E+01
+3.967900E+01,-1.374300E+01
+3.968900E+01,-1.374400E+01
+3.969900E+01,-1.374300E+01
+3.970900E+01,-1.374400E+01
+3.971900E+01,-1.374400E+01
+3.972900E+01,-1.374600E+01
+3.973900E+01,-1.374400E+01
+3.974900E+01,-1.374300E+01
+3.975900E+01,-1.374400E+01
+3.976900E+01,-1.374200E+01
+3.977900E+01,-1.374200E+01
+3.978900E+01,-1.374200E+01
+3.979900E+01,-1.374300E+01
+3.980900E+01,-1.374100E+01
+3.981900E+01,-1.374100E+01
+3.982900E+01,-1.374100E+01
+3.983900E+01,-1.374400E+01
+3.984900E+01,-1.374500E+01
+3.985900E+01,-1.374600E+01
+3.986900E+01,-1.374700E+01
+3.987900E+01,-1.374500E+01
+3.988900E+01,-1.374200E+01
+3.989900E+01,-1.374000E+01
+3.990900E+01,-1.374300E+01
+3.991900E+01,-1.374100E+01
+3.992900E+01,-1.374700E+01
+3.993900E+01,-1.374100E+01
+3.994900E+01,-1.374300E+01
+3.995900E+01,-1.373400E+01
+3.996900E+01,-1.373300E+01
+3.997900E+01,-1.374000E+01
+3.998900E+01,-1.374500E+01
+3.999900E+01,-1.375200E+01
+4.000900E+01,-1.374300E+01
+4.001900E+01,-1.374100E+01
+4.002900E+01,-1.373900E+01
+4.003900E+01,-1.374400E+01
+4.004900E+01,-1.373900E+01
+4.005900E+01,-1.374200E+01
+4.006900E+01,-1.374200E+01
+4.007900E+01,-1.375100E+01
+4.008900E+01,-1.374500E+01
+4.009900E+01,-1.375200E+01
+4.010900E+01,-1.374300E+01
+4.011900E+01,-1.374300E+01
+4.012900E+01,-1.374200E+01
+4.013900E+01,-1.373900E+01
+4.014900E+01,-1.374900E+01
+4.015900E+01,-1.373900E+01
+4.016900E+01,-1.375600E+01
+4.017900E+01,-1.373600E+01
+4.018900E+01,-1.373900E+01
+4.019900E+01,-1.373400E+01
+4.020900E+01,-1.373200E+01
+4.021900E+01,-1.374000E+01
+4.022900E+01,-1.372900E+01
+4.023900E+01,-1.375400E+01
+4.024900E+01,-1.374000E+01
+4.025900E+01,-1.373100E+01
+4.026900E+01,-1.374400E+01
+4.027900E+01,-1.372400E+01
+4.028900E+01,-1.374300E+01
+4.029900E+01,-1.373600E+01
+4.030900E+01,-1.374100E+01
+4.031900E+01,-1.374200E+01
+4.032900E+01,-1.372900E+01
+4.033900E+01,-1.374800E+01
+4.034900E+01,-1.372500E+01
+4.035900E+01,-1.375200E+01
+4.036900E+01,-1.373100E+01
+4.037900E+01,-1.374700E+01
+4.038900E+01,-1.374900E+01
+4.039900E+01,-1.373200E+01
+4.040900E+01,-1.375100E+01
+4.041900E+01,-1.372700E+01
+4.042900E+01,-1.374200E+01
+4.043900E+01,-1.373500E+01
+4.044900E+01,-1.373600E+01
+4.045900E+01,-1.373900E+01
+4.046900E+01,-1.372800E+01
+4.047900E+01,-1.373900E+01
+4.048900E+01,-1.373600E+01
+4.049900E+01,-1.373400E+01
+4.050900E+01,-1.373400E+01
+4.051900E+01,-1.372900E+01
+4.052900E+01,-1.373000E+01
+4.053900E+01,-1.372500E+01
+4.054900E+01,-1.372600E+01
+4.055900E+01,-1.372500E+01
+4.056900E+01,-1.372500E+01
+4.057900E+01,-1.372300E+01
+4.058900E+01,-1.372800E+01
+4.059900E+01,-1.372500E+01
+4.060900E+01,-1.372700E+01
+4.061900E+01,-1.372700E+01
+4.062900E+01,-1.372400E+01
+4.063900E+01,-1.372200E+01
+4.064900E+01,-1.372200E+01
+4.065900E+01,-1.372200E+01
+4.066900E+01,-1.372100E+01
+4.067900E+01,-1.371900E+01
+4.068900E+01,-1.372000E+01
+4.069900E+01,-1.372000E+01
+4.070900E+01,-1.372100E+01
+4.071900E+01,-1.372200E+01
+4.072900E+01,-1.372700E+01
+4.073900E+01,-1.372800E+01
+4.074900E+01,-1.372700E+01
+4.075900E+01,-1.372900E+01
+4.076900E+01,-1.372700E+01
+4.077900E+01,-1.373000E+01
+4.078900E+01,-1.372800E+01
+4.079900E+01,-1.372900E+01
+4.080900E+01,-1.372900E+01
+4.081900E+01,-1.372500E+01
+4.082900E+01,-1.372600E+01
+4.083900E+01,-1.372600E+01
+4.084900E+01,-1.372500E+01
+4.085900E+01,-1.372500E+01
+4.086900E+01,-1.372400E+01
+4.087900E+01,-1.372300E+01
+4.088900E+01,-1.372500E+01
+4.089900E+01,-1.372600E+01
+4.090900E+01,-1.372000E+01
+4.091900E+01,-1.372100E+01
+4.092900E+01,-1.372200E+01
+4.093900E+01,-1.372200E+01
+4.094900E+01,-1.371900E+01
+4.095900E+01,-1.372500E+01
+4.096900E+01,-1.372200E+01
+4.097900E+01,-1.372200E+01
+4.098900E+01,-1.372300E+01
+4.099900E+01,-1.372500E+01
+4.100900E+01,-1.372600E+01
+4.101900E+01,-1.372500E+01
+4.102900E+01,-1.372500E+01
+4.103900E+01,-1.372600E+01
+4.104900E+01,-1.372400E+01
+4.105900E+01,-1.372500E+01
+4.106900E+01,-1.372400E+01
+4.107900E+01,-1.372300E+01
+4.108900E+01,-1.372400E+01
+4.109900E+01,-1.372300E+01
+4.110900E+01,-1.372400E+01
+4.111900E+01,-1.372700E+01
+4.112900E+01,-1.372100E+01
+4.113900E+01,-1.372300E+01
+4.114900E+01,-1.372300E+01
+4.115900E+01,-1.372000E+01
+4.116900E+01,-1.372700E+01
+4.117900E+01,-1.371500E+01
+4.118900E+01,-1.372100E+01
+4.119900E+01,-1.372200E+01
+4.120900E+01,-1.371300E+01
+4.121900E+01,-1.373400E+01
+4.122900E+01,-1.371700E+01
+4.123900E+01,-1.372700E+01
+4.124900E+01,-1.373300E+01
+4.125900E+01,-1.371000E+01
+4.126900E+01,-1.373000E+01
+4.127900E+01,-1.370900E+01
+4.128900E+01,-1.371900E+01
+4.129900E+01,-1.371600E+01
+4.130900E+01,-1.370000E+01
+4.131900E+01,-1.372800E+01
+4.132900E+01,-1.370400E+01
+4.133900E+01,-1.372600E+01
+4.134900E+01,-1.372000E+01
+4.135900E+01,-1.371200E+01
+4.136900E+01,-1.372400E+01
+4.137900E+01,-1.370300E+01
+4.138900E+01,-1.372100E+01
+4.139900E+01,-1.371000E+01
+4.140900E+01,-1.371000E+01
+4.141900E+01,-1.372100E+01
+4.142900E+01,-1.371100E+01
+4.143900E+01,-1.372000E+01
+4.144900E+01,-1.371800E+01
+4.145900E+01,-1.371700E+01
+4.146900E+01,-1.371900E+01
+4.147900E+01,-1.371800E+01
+4.148900E+01,-1.371500E+01
+4.149900E+01,-1.371600E+01
+4.150900E+01,-1.372000E+01
+4.151900E+01,-1.372400E+01
+4.152900E+01,-1.372500E+01
+4.153900E+01,-1.372000E+01
+4.154900E+01,-1.372100E+01
+4.155900E+01,-1.371300E+01
+4.156900E+01,-1.371000E+01
+4.157900E+01,-1.371000E+01
+4.158900E+01,-1.372400E+01
+4.159900E+01,-1.371300E+01
+4.160900E+01,-1.371600E+01
+4.161900E+01,-1.371800E+01
+4.162900E+01,-1.372100E+01
+4.163900E+01,-1.372000E+01
+4.164900E+01,-1.371300E+01
+4.165900E+01,-1.371700E+01
+4.166900E+01,-1.371400E+01
+4.167900E+01,-1.371800E+01
+4.168900E+01,-1.372600E+01
+4.169900E+01,-1.372000E+01
+4.170900E+01,-1.371400E+01
+4.171900E+01,-1.371700E+01
+4.172900E+01,-1.372200E+01
+4.173900E+01,-1.371300E+01
+4.174900E+01,-1.372400E+01
+4.175900E+01,-1.372500E+01
+4.176900E+01,-1.372200E+01
+4.177900E+01,-1.370700E+01
+4.178900E+01,-1.370600E+01
+4.179900E+01,-1.371800E+01
+4.180900E+01,-1.372100E+01
+4.181900E+01,-1.372400E+01
+4.182900E+01,-1.371800E+01
+4.183900E+01,-1.371600E+01
+4.184900E+01,-1.371500E+01
+4.185900E+01,-1.371900E+01
+4.186900E+01,-1.371600E+01
+4.187900E+01,-1.372100E+01
+4.188900E+01,-1.372000E+01
+4.189900E+01,-1.371900E+01
+4.190900E+01,-1.371900E+01
+4.191900E+01,-1.371800E+01
+4.192900E+01,-1.371900E+01
+4.193900E+01,-1.372100E+01
+4.194900E+01,-1.372100E+01
+4.195900E+01,-1.372000E+01
+4.196900E+01,-1.371700E+01
+4.197900E+01,-1.371700E+01
+4.198900E+01,-1.371200E+01
+4.199900E+01,-1.371500E+01
+4.200900E+01,-1.371500E+01
+4.201900E+01,-1.371900E+01
+4.202900E+01,-1.371300E+01
+4.203900E+01,-1.371600E+01
+4.204900E+01,-1.371300E+01
+4.205900E+01,-1.371000E+01
+4.206900E+01,-1.371500E+01
+4.207900E+01,-1.371600E+01
+4.208900E+01,-1.371100E+01
+4.209900E+01,-1.371600E+01
+4.210900E+01,-1.371000E+01
+4.211900E+01,-1.371100E+01
+4.212900E+01,-1.371600E+01
+4.213900E+01,-1.370700E+01
+4.214900E+01,-1.372200E+01
+4.215900E+01,-1.371900E+01
+4.216900E+01,-1.370900E+01
+4.217900E+01,-1.372400E+01
+4.218900E+01,-1.370800E+01
+4.219900E+01,-1.370500E+01
+4.220900E+01,-1.372200E+01
+4.221900E+01,-1.370500E+01
+4.222900E+01,-1.372300E+01
+4.223900E+01,-1.372800E+01
+4.224900E+01,-1.370000E+01
+4.225900E+01,-1.372300E+01
+4.226900E+01,-1.370900E+01
+4.227900E+01,-1.370200E+01
+4.228900E+01,-1.372800E+01
+4.229900E+01,-1.370900E+01
+4.230900E+01,-1.371900E+01
+4.231900E+01,-1.372400E+01
+4.232900E+01,-1.370400E+01
+4.233900E+01,-1.371900E+01
+4.234900E+01,-1.371000E+01
+4.235900E+01,-1.370700E+01
+4.236900E+01,-1.372000E+01
+4.237900E+01,-1.371000E+01
+4.238900E+01,-1.371700E+01
+4.239900E+01,-1.371600E+01
+4.240900E+01,-1.371200E+01
+4.241900E+01,-1.372000E+01
+4.242900E+01,-1.371300E+01
+4.243900E+01,-1.371400E+01
+4.244900E+01,-1.371500E+01
+4.245900E+01,-1.371200E+01
+4.246900E+01,-1.371600E+01
+4.247900E+01,-1.371400E+01
+4.248900E+01,-1.371400E+01
+4.249900E+01,-1.371500E+01
+4.250900E+01,-1.371500E+01
+4.251900E+01,-1.371500E+01
+4.252900E+01,-1.371300E+01
+4.253900E+01,-1.371600E+01
+4.254900E+01,-1.371200E+01
+4.255900E+01,-1.371300E+01
+4.256900E+01,-1.371700E+01
+4.257900E+01,-1.371500E+01
+4.258900E+01,-1.371500E+01
+4.259900E+01,-1.371200E+01
+4.260900E+01,-1.371400E+01
+4.261900E+01,-1.371100E+01
+4.262900E+01,-1.371400E+01
+4.263900E+01,-1.371200E+01
+4.264900E+01,-1.371100E+01
+4.265900E+01,-1.371300E+01
+4.266900E+01,-1.371100E+01
+4.267900E+01,-1.371300E+01
+4.268900E+01,-1.371100E+01
+4.269900E+01,-1.371000E+01
+4.270900E+01,-1.371100E+01
+4.271900E+01,-1.371100E+01
+4.272900E+01,-1.371100E+01
+4.273900E+01,-1.371200E+01
+4.274900E+01,-1.371400E+01
+4.275900E+01,-1.371100E+01
+4.276900E+01,-1.371300E+01
+4.277900E+01,-1.371300E+01
+4.278900E+01,-1.371300E+01
+4.279900E+01,-1.371300E+01
+4.280900E+01,-1.371100E+01
+4.281900E+01,-1.371500E+01
+4.282900E+01,-1.371500E+01
+4.283900E+01,-1.371200E+01
+4.284900E+01,-1.371400E+01
+4.285900E+01,-1.371200E+01
+4.286900E+01,-1.371200E+01
+4.287900E+01,-1.371300E+01
+4.288900E+01,-1.371300E+01
+4.289900E+01,-1.371200E+01
+4.290900E+01,-1.371300E+01
+4.291900E+01,-1.371300E+01
+4.292900E+01,-1.371600E+01
+4.293900E+01,-1.371500E+01
+4.294900E+01,-1.371300E+01
+4.295900E+01,-1.371500E+01
+4.296900E+01,-1.371600E+01
+4.297900E+01,-1.371400E+01
+4.298900E+01,-1.371800E+01
+4.299900E+01,-1.371600E+01
+4.300900E+01,-1.371500E+01
+4.301900E+01,-1.371700E+01
+4.302900E+01,-1.370900E+01
+4.303900E+01,-1.371400E+01
+4.304900E+01,-1.371700E+01
+4.305900E+01,-1.371500E+01
+4.306900E+01,-1.372100E+01
+4.307900E+01,-1.371600E+01
+4.308900E+01,-1.371200E+01
+4.309900E+01,-1.372100E+01
+4.310900E+01,-1.370300E+01
+4.311900E+01,-1.372500E+01
+4.312900E+01,-1.371000E+01
+4.313900E+01,-1.371200E+01
+4.314900E+01,-1.373200E+01
+4.315900E+01,-1.370700E+01
+4.316900E+01,-1.372100E+01
+4.317900E+01,-1.372200E+01
+4.318900E+01,-1.369900E+01
+4.319900E+01,-1.372100E+01
+4.320900E+01,-1.371500E+01
+4.321900E+01,-1.371200E+01
+4.322900E+01,-1.372500E+01
+4.323900E+01,-1.371000E+01
+4.324900E+01,-1.372400E+01
+4.325900E+01,-1.372200E+01
+4.326900E+01,-1.371000E+01
+4.327900E+01,-1.372800E+01
+4.328900E+01,-1.370700E+01
+4.329900E+01,-1.372100E+01
+4.330900E+01,-1.370800E+01
+4.331900E+01,-1.371400E+01
+4.332900E+01,-1.372000E+01
+4.333900E+01,-1.371000E+01
+4.334900E+01,-1.372100E+01
+4.335900E+01,-1.372400E+01
+4.336900E+01,-1.371600E+01
+4.337900E+01,-1.371400E+01
+4.338900E+01,-1.371800E+01
+4.339900E+01,-1.370700E+01
+4.340900E+01,-1.371800E+01
+4.341900E+01,-1.371600E+01
+4.342900E+01,-1.371600E+01
+4.343900E+01,-1.372300E+01
+4.344900E+01,-1.371400E+01
+4.345900E+01,-1.371500E+01
+4.346900E+01,-1.371300E+01
+4.347900E+01,-1.371700E+01
+4.348900E+01,-1.371600E+01
+4.349900E+01,-1.372000E+01
+4.350900E+01,-1.371400E+01
+4.351900E+01,-1.371900E+01
+4.352900E+01,-1.371900E+01
+4.353900E+01,-1.371900E+01
+4.354900E+01,-1.370900E+01
+4.355900E+01,-1.371800E+01
+4.356900E+01,-1.372100E+01
+4.357900E+01,-1.372100E+01
+4.358900E+01,-1.371500E+01
+4.359900E+01,-1.372000E+01
+4.360900E+01,-1.372000E+01
+4.361900E+01,-1.371900E+01
+4.362900E+01,-1.371900E+01
+4.363900E+01,-1.371700E+01
+4.364900E+01,-1.371900E+01
+4.365900E+01,-1.371900E+01
+4.366900E+01,-1.371600E+01
+4.367900E+01,-1.371900E+01
+4.368900E+01,-1.371700E+01
+4.369900E+01,-1.372100E+01
+4.370900E+01,-1.372100E+01
+4.371900E+01,-1.371700E+01
+4.372900E+01,-1.371800E+01
+4.373900E+01,-1.371800E+01
+4.374900E+01,-1.372000E+01
+4.375900E+01,-1.371900E+01
+4.376900E+01,-1.372000E+01
+4.377900E+01,-1.371900E+01
+4.378900E+01,-1.372000E+01
+4.379900E+01,-1.372000E+01
+4.380900E+01,-1.372000E+01
+4.381900E+01,-1.372000E+01
+4.382900E+01,-1.371900E+01
+4.383900E+01,-1.372000E+01
+4.384900E+01,-1.371900E+01
+4.385900E+01,-1.372200E+01
+4.386900E+01,-1.371900E+01
+4.387900E+01,-1.371900E+01
+4.388900E+01,-1.372000E+01
+4.389900E+01,-1.372000E+01
+4.390900E+01,-1.372000E+01
+4.391900E+01,-1.372000E+01
+4.392900E+01,-1.372200E+01
+4.393900E+01,-1.372000E+01
+4.394900E+01,-1.372200E+01
+4.395900E+01,-1.371900E+01
+4.396900E+01,-1.371900E+01
+4.397900E+01,-1.371900E+01
+4.398900E+01,-1.371900E+01
+4.399900E+01,-1.372100E+01
+4.400900E+01,-1.371700E+01
+4.401900E+01,-1.372700E+01
+4.402900E+01,-1.371800E+01
+4.403900E+01,-1.372100E+01
+4.404900E+01,-1.372200E+01
+4.405900E+01,-1.371500E+01
+4.406900E+01,-1.372900E+01
+4.407900E+01,-1.370700E+01
+4.408900E+01,-1.370800E+01
+4.409900E+01,-1.373500E+01
+4.410900E+01,-1.371200E+01
+4.411900E+01,-1.373100E+01
+4.412900E+01,-1.371500E+01
+4.413900E+01,-1.372500E+01
+4.414900E+01,-1.372200E+01
+4.415900E+01,-1.371500E+01
+4.416900E+01,-1.372900E+01
+4.417900E+01,-1.370600E+01
+4.418900E+01,-1.373000E+01
+4.419900E+01,-1.373000E+01
+4.420900E+01,-1.370300E+01
+4.421900E+01,-1.372500E+01
+4.422900E+01,-1.370700E+01
+4.423900E+01,-1.371700E+01
+4.424900E+01,-1.371700E+01
+4.425900E+01,-1.371200E+01
+4.426900E+01,-1.372000E+01
+4.427900E+01,-1.371100E+01
+4.428900E+01,-1.372500E+01
+4.429900E+01,-1.371300E+01
+4.430900E+01,-1.372300E+01
+4.431900E+01,-1.371600E+01
+4.432900E+01,-1.372200E+01
+4.433900E+01,-1.372000E+01
+4.434900E+01,-1.372000E+01
+4.435900E+01,-1.372000E+01
+4.436900E+01,-1.372200E+01
+4.437900E+01,-1.372000E+01
+4.438900E+01,-1.372100E+01
+4.439900E+01,-1.371900E+01
+4.440900E+01,-1.372000E+01
+4.441900E+01,-1.372000E+01
+4.442900E+01,-1.372200E+01
+4.443900E+01,-1.371900E+01
+4.444900E+01,-1.372000E+01
+4.445900E+01,-1.372300E+01
+4.446900E+01,-1.372000E+01
+4.447900E+01,-1.372000E+01
+4.448900E+01,-1.372000E+01
+4.449900E+01,-1.372100E+01
+4.450900E+01,-1.372000E+01
+4.451900E+01,-1.372000E+01
+4.452900E+01,-1.372000E+01
+4.453900E+01,-1.372200E+01
+4.454900E+01,-1.371900E+01
+4.455900E+01,-1.372000E+01
+4.456900E+01,-1.372000E+01
+4.457900E+01,-1.371900E+01
+4.458900E+01,-1.372000E+01
+4.459900E+01,-1.371900E+01
+4.460900E+01,-1.372000E+01
+4.461900E+01,-1.372100E+01
+4.462900E+01,-1.372100E+01
+4.463900E+01,-1.372000E+01
+4.464900E+01,-1.371900E+01
+4.465900E+01,-1.372200E+01
+4.466900E+01,-1.372100E+01
+4.467900E+01,-1.372000E+01
+4.468900E+01,-1.371600E+01
+4.469900E+01,-1.372200E+01
+4.470900E+01,-1.372000E+01
+4.471900E+01,-1.372300E+01
+4.472900E+01,-1.371900E+01
+4.473900E+01,-1.372500E+01
+4.474900E+01,-1.372100E+01
+4.475900E+01,-1.372600E+01
+4.476900E+01,-1.372200E+01
+4.477900E+01,-1.371700E+01
+4.478900E+01,-1.372000E+01
+4.479900E+01,-1.372000E+01
+4.480900E+01,-1.372000E+01
+4.481900E+01,-1.372700E+01
+4.482900E+01,-1.372200E+01
+4.483900E+01,-1.372200E+01
+4.484900E+01,-1.371500E+01
+4.485900E+01,-1.372500E+01
+4.486900E+01,-1.371900E+01
+4.487900E+01,-1.372700E+01
+4.488900E+01,-1.373000E+01
+4.489900E+01,-1.372200E+01
+4.490900E+01,-1.372400E+01
+4.491900E+01,-1.372000E+01
+4.492900E+01,-1.371900E+01
+4.493900E+01,-1.372800E+01
+4.494900E+01,-1.372700E+01
+4.495900E+01,-1.372500E+01
+4.496900E+01,-1.372500E+01
+4.497900E+01,-1.372300E+01
+4.498900E+01,-1.372300E+01
+4.499900E+01,-1.371700E+01
+4.500900E+01,-1.371900E+01
+4.501900E+01,-1.372500E+01
+4.502900E+01,-1.372600E+01
+4.503900E+01,-1.372000E+01
+4.504900E+01,-1.371900E+01
+4.505900E+01,-1.373200E+01
+4.506900E+01,-1.372600E+01
+4.507900E+01,-1.372400E+01
+4.508900E+01,-1.372100E+01
+4.509900E+01,-1.372000E+01
+4.510900E+01,-1.371900E+01
+4.511900E+01,-1.372100E+01
+4.512900E+01,-1.372500E+01
+4.513900E+01,-1.373000E+01
+4.514900E+01,-1.373300E+01
+4.515900E+01,-1.372500E+01
+4.516900E+01,-1.372500E+01
+4.517900E+01,-1.371900E+01
+4.518900E+01,-1.372800E+01
+4.519900E+01,-1.372200E+01
+4.520900E+01,-1.373500E+01
+4.521900E+01,-1.372200E+01
+4.522900E+01,-1.373100E+01
+4.523900E+01,-1.372200E+01
+4.524900E+01,-1.372800E+01
+4.525900E+01,-1.372300E+01
+4.526900E+01,-1.372300E+01
+4.527900E+01,-1.372000E+01
+4.528900E+01,-1.372600E+01
+4.529900E+01,-1.372000E+01
+4.530900E+01,-1.372100E+01
+4.531900E+01,-1.372100E+01
+4.532900E+01,-1.372100E+01
+4.533900E+01,-1.372000E+01
+4.534900E+01,-1.372300E+01
+4.535900E+01,-1.372100E+01
+4.536900E+01,-1.372200E+01
+4.537900E+01,-1.372300E+01
+4.538900E+01,-1.372000E+01
+4.539900E+01,-1.372100E+01
+4.540900E+01,-1.372000E+01
+4.541900E+01,-1.372000E+01
+4.542900E+01,-1.371700E+01
+4.543900E+01,-1.372000E+01
+4.544900E+01,-1.372200E+01
+4.545900E+01,-1.372400E+01
+4.546900E+01,-1.372300E+01
+4.547900E+01,-1.372500E+01
+4.548900E+01,-1.372000E+01
+4.549900E+01,-1.372300E+01
+4.550900E+01,-1.372500E+01
+4.551900E+01,-1.372300E+01
+4.552900E+01,-1.372400E+01
+4.553900E+01,-1.372400E+01
+4.554900E+01,-1.372400E+01
+4.555900E+01,-1.372500E+01
+4.556900E+01,-1.372400E+01
+4.557900E+01,-1.371900E+01
+4.558900E+01,-1.372500E+01
+4.559900E+01,-1.372500E+01
+4.560900E+01,-1.372400E+01
+4.561900E+01,-1.372400E+01
+4.562900E+01,-1.372300E+01
+4.563900E+01,-1.372400E+01
+4.564900E+01,-1.372500E+01
+4.565900E+01,-1.372500E+01
+4.566900E+01,-1.372600E+01
+4.567900E+01,-1.372500E+01
+4.568900E+01,-1.372700E+01
+4.569900E+01,-1.372500E+01
+4.570900E+01,-1.372500E+01
+4.571900E+01,-1.372300E+01
+4.572900E+01,-1.372300E+01
+4.573900E+01,-1.372100E+01
+4.574900E+01,-1.372300E+01
+4.575900E+01,-1.372400E+01
+4.576900E+01,-1.372300E+01
+4.577900E+01,-1.372300E+01
+4.578900E+01,-1.372300E+01
+4.579900E+01,-1.372200E+01
+4.580900E+01,-1.372300E+01
+4.581900E+01,-1.372300E+01
+4.582900E+01,-1.372600E+01
+4.583900E+01,-1.372200E+01
+4.584900E+01,-1.372500E+01
+4.585900E+01,-1.372200E+01
+4.586900E+01,-1.372400E+01
+4.587900E+01,-1.372400E+01
+4.588900E+01,-1.372500E+01
+4.589900E+01,-1.372500E+01
+4.590900E+01,-1.372400E+01
+4.591900E+01,-1.372700E+01
+4.592900E+01,-1.372400E+01
+4.593900E+01,-1.372500E+01
+4.594900E+01,-1.372500E+01
+4.595900E+01,-1.372500E+01
+4.596900E+01,-1.372400E+01
+4.597900E+01,-1.372500E+01
+4.598900E+01,-1.372200E+01
+4.599900E+01,-1.372500E+01
+4.600900E+01,-1.372000E+01
+4.601900E+01,-1.372500E+01
+4.602900E+01,-1.372200E+01
+4.603900E+01,-1.372500E+01
+4.604900E+01,-1.372200E+01
+4.605900E+01,-1.372700E+01
+4.606900E+01,-1.371900E+01
+4.607900E+01,-1.372300E+01
+4.608900E+01,-1.371900E+01
+4.609900E+01,-1.372200E+01
+4.610900E+01,-1.372000E+01
+4.611900E+01,-1.371800E+01
+4.612900E+01,-1.372000E+01
+4.613900E+01,-1.372300E+01
+4.614900E+01,-1.371800E+01
+4.615900E+01,-1.371900E+01
+4.616900E+01,-1.372100E+01
+4.617900E+01,-1.371800E+01
+4.618900E+01,-1.372200E+01
+4.619900E+01,-1.371800E+01
+4.620900E+01,-1.372400E+01
+4.621900E+01,-1.371800E+01
+4.622900E+01,-1.372800E+01
+4.623900E+01,-1.372000E+01
+4.624900E+01,-1.372200E+01
+4.625900E+01,-1.371900E+01
+4.626900E+01,-1.371900E+01
+4.627900E+01,-1.371500E+01
+4.628900E+01,-1.372200E+01
+4.629900E+01,-1.372100E+01
+4.630900E+01,-1.372400E+01
+4.631900E+01,-1.372000E+01
+4.632900E+01,-1.372400E+01
+4.633900E+01,-1.371500E+01
+4.634900E+01,-1.371800E+01
+4.635900E+01,-1.372200E+01
+4.636900E+01,-1.372700E+01
+4.637900E+01,-1.372300E+01
+4.638900E+01,-1.372600E+01
+4.639900E+01,-1.372100E+01
+4.640900E+01,-1.371900E+01
+4.641900E+01,-1.371900E+01
+4.642900E+01,-1.372700E+01
+4.643900E+01,-1.372400E+01
+4.644900E+01,-1.372400E+01
+4.645900E+01,-1.372000E+01
+4.646900E+01,-1.372200E+01
+4.647900E+01,-1.371800E+01
+4.648900E+01,-1.372100E+01
+4.649900E+01,-1.372000E+01
+4.650900E+01,-1.371800E+01
+4.651900E+01,-1.372800E+01
+4.652900E+01,-1.373000E+01
+4.653900E+01,-1.372600E+01
+4.654900E+01,-1.372300E+01
+4.655900E+01,-1.371600E+01
+4.656900E+01,-1.372400E+01
+4.657900E+01,-1.372500E+01
+4.658900E+01,-1.372800E+01
+4.659900E+01,-1.373200E+01
+4.660900E+01,-1.372400E+01
+4.661900E+01,-1.372600E+01
+4.662900E+01,-1.372000E+01
+4.663900E+01,-1.371700E+01
+4.664900E+01,-1.372500E+01
+4.665900E+01,-1.372200E+01
+4.666900E+01,-1.372100E+01
+4.667900E+01,-1.372700E+01
+4.668900E+01,-1.372500E+01
+4.669900E+01,-1.372400E+01
+4.670900E+01,-1.372500E+01
+4.671900E+01,-1.372600E+01
+4.672900E+01,-1.373200E+01
+4.673900E+01,-1.373200E+01
+4.674900E+01,-1.373100E+01
+4.675900E+01,-1.372900E+01
+4.676900E+01,-1.372700E+01
+4.677900E+01,-1.373200E+01
+4.678900E+01,-1.372600E+01
+4.679900E+01,-1.372800E+01
+4.680900E+01,-1.372800E+01
+4.681900E+01,-1.372500E+01
+4.682900E+01,-1.372500E+01
+4.683900E+01,-1.372600E+01
+4.684900E+01,-1.372900E+01
+4.685900E+01,-1.372700E+01
+4.686900E+01,-1.372700E+01
+4.687900E+01,-1.373100E+01
+4.688900E+01,-1.372300E+01
+4.689900E+01,-1.372800E+01
+4.690900E+01,-1.372700E+01
+4.691900E+01,-1.372800E+01
+4.692900E+01,-1.372500E+01
+4.693900E+01,-1.372900E+01
+4.694900E+01,-1.372400E+01
+4.695900E+01,-1.372900E+01
+4.696900E+01,-1.372500E+01
+4.697900E+01,-1.373200E+01
+4.698900E+01,-1.372500E+01
+4.699900E+01,-1.373500E+01
+4.700900E+01,-1.373100E+01
+4.701900E+01,-1.372900E+01
+4.702900E+01,-1.373600E+01
+4.703900E+01,-1.372500E+01
+4.704900E+01,-1.373600E+01
+4.705900E+01,-1.372000E+01
+4.706900E+01,-1.373600E+01
+4.707900E+01,-1.371700E+01
+4.708900E+01,-1.373800E+01
+4.709900E+01,-1.371600E+01
+4.710900E+01,-1.373700E+01
+4.711900E+01,-1.372100E+01
+4.712900E+01,-1.373100E+01
+4.713900E+01,-1.372400E+01
+4.714900E+01,-1.372500E+01
+4.715900E+01,-1.372700E+01
+4.716900E+01,-1.373200E+01
+4.717900E+01,-1.372800E+01
+4.718900E+01,-1.372400E+01
+4.719900E+01,-1.372700E+01
+4.720900E+01,-1.372100E+01
+4.721900E+01,-1.373300E+01
+4.722900E+01,-1.372300E+01
+4.723900E+01,-1.373700E+01
+4.724900E+01,-1.372200E+01
+4.725900E+01,-1.374000E+01
+4.726900E+01,-1.372900E+01
+4.727900E+01,-1.374100E+01
+4.728900E+01,-1.373100E+01
+4.729900E+01,-1.373600E+01
+4.730900E+01,-1.373400E+01
+4.731900E+01,-1.373800E+01
+4.732900E+01,-1.373800E+01
+4.733900E+01,-1.373700E+01
+4.734900E+01,-1.373500E+01
+4.735900E+01,-1.373400E+01
+4.736900E+01,-1.373400E+01
+4.737900E+01,-1.373300E+01
+4.738900E+01,-1.373600E+01
+4.739900E+01,-1.373600E+01
+4.740900E+01,-1.373800E+01
+4.741900E+01,-1.373600E+01
+4.742900E+01,-1.373600E+01
+4.743900E+01,-1.373600E+01
+4.744900E+01,-1.373600E+01
+4.745900E+01,-1.373800E+01
+4.746900E+01,-1.373600E+01
+4.747900E+01,-1.373400E+01
+4.748900E+01,-1.373800E+01
+4.749900E+01,-1.373600E+01
+4.750900E+01,-1.373700E+01
+4.751900E+01,-1.373700E+01
+4.752900E+01,-1.373600E+01
+4.753900E+01,-1.373400E+01
+4.754900E+01,-1.373400E+01
+4.755900E+01,-1.373400E+01
+4.756900E+01,-1.373300E+01
+4.757900E+01,-1.373400E+01
+4.758900E+01,-1.373500E+01
+4.759900E+01,-1.373500E+01
+4.760900E+01,-1.373600E+01
+4.761900E+01,-1.373300E+01
+4.762900E+01,-1.373500E+01
+4.763900E+01,-1.373600E+01
+4.764900E+01,-1.373600E+01
+4.765900E+01,-1.373500E+01
+4.766900E+01,-1.373500E+01
+4.767900E+01,-1.373800E+01
+4.768900E+01,-1.373400E+01
+4.769900E+01,-1.373500E+01
+4.770900E+01,-1.373500E+01
+4.771900E+01,-1.373500E+01
+4.772900E+01,-1.373400E+01
+4.773900E+01,-1.373400E+01
+4.774900E+01,-1.373700E+01
+4.775900E+01,-1.373600E+01
+4.776900E+01,-1.373500E+01
+4.777900E+01,-1.373400E+01
+4.778900E+01,-1.373400E+01
+4.779900E+01,-1.373400E+01
+4.780900E+01,-1.373400E+01
+4.781900E+01,-1.373500E+01
+4.782900E+01,-1.373400E+01
+4.783900E+01,-1.373400E+01
+4.784900E+01,-1.373300E+01
+4.785900E+01,-1.373400E+01
+4.786900E+01,-1.373200E+01
+4.787900E+01,-1.373300E+01
+4.788900E+01,-1.373100E+01
+4.789900E+01,-1.373100E+01
+4.790900E+01,-1.372900E+01
+4.791900E+01,-1.373100E+01
+4.792900E+01,-1.373400E+01
+4.793900E+01,-1.373100E+01
+4.794900E+01,-1.373100E+01
+4.795900E+01,-1.373600E+01
+4.796900E+01,-1.373300E+01
+4.797900E+01,-1.372800E+01
+4.798900E+01,-1.373300E+01
+4.799900E+01,-1.372400E+01
+4.800900E+01,-1.373100E+01
+4.801900E+01,-1.372500E+01
+4.802900E+01,-1.374000E+01
+4.803900E+01,-1.372400E+01
+4.804900E+01,-1.373200E+01
+4.805900E+01,-1.373100E+01
+4.806900E+01,-1.374300E+01
+4.807900E+01,-1.372500E+01
+4.808900E+01,-1.373100E+01
+4.809900E+01,-1.373100E+01
+4.810900E+01,-1.372600E+01
+4.811900E+01,-1.374500E+01
+4.812900E+01,-1.371900E+01
+4.813900E+01,-1.375500E+01
+4.814900E+01,-1.373200E+01
+4.815900E+01,-1.374900E+01
+4.816900E+01,-1.372900E+01
+4.817900E+01,-1.373600E+01
+4.818900E+01,-1.373000E+01
+4.819900E+01,-1.372800E+01
+4.820900E+01,-1.374300E+01
+4.821900E+01,-1.373700E+01
+4.822900E+01,-1.374200E+01
+4.823900E+01,-1.372700E+01
+4.824900E+01,-1.374300E+01
+4.825900E+01,-1.373100E+01
+4.826900E+01,-1.373300E+01
+4.827900E+01,-1.372900E+01
+4.828900E+01,-1.372200E+01
+4.829900E+01,-1.373100E+01
+4.830900E+01,-1.372500E+01
+4.831900E+01,-1.373200E+01
+4.832900E+01,-1.373100E+01
+4.833900E+01,-1.374100E+01
+4.834900E+01,-1.373700E+01
+4.835900E+01,-1.373600E+01
+4.836900E+01,-1.373600E+01
+4.837900E+01,-1.373300E+01
+4.838900E+01,-1.373100E+01
+4.839900E+01,-1.372500E+01
+4.840900E+01,-1.372500E+01
+4.841900E+01,-1.372500E+01
+4.842900E+01,-1.372500E+01
+4.843900E+01,-1.373000E+01
+4.844900E+01,-1.373600E+01
+4.845900E+01,-1.373100E+01
+4.846900E+01,-1.373000E+01
+4.847900E+01,-1.373100E+01
+4.848900E+01,-1.373000E+01
+4.849900E+01,-1.372700E+01
+4.850900E+01,-1.373100E+01
+4.851900E+01,-1.373100E+01
+4.852900E+01,-1.372800E+01
+4.853900E+01,-1.373100E+01
+4.854900E+01,-1.372800E+01
+4.855900E+01,-1.373200E+01
+4.856900E+01,-1.372600E+01
+4.857900E+01,-1.372700E+01
+4.858900E+01,-1.372800E+01
+4.859900E+01,-1.372700E+01
+4.860900E+01,-1.372800E+01
+4.861900E+01,-1.373000E+01
+4.862900E+01,-1.372800E+01
+4.863900E+01,-1.372800E+01
+4.864900E+01,-1.373000E+01
+4.865900E+01,-1.372700E+01
+4.866900E+01,-1.373100E+01
+4.867900E+01,-1.373100E+01
+4.868900E+01,-1.373000E+01
+4.869900E+01,-1.372900E+01
+4.870900E+01,-1.372900E+01
+4.871900E+01,-1.373100E+01
+4.872900E+01,-1.373200E+01
+4.873900E+01,-1.372900E+01
+4.874900E+01,-1.372800E+01
+4.875900E+01,-1.372800E+01
+4.876900E+01,-1.373100E+01
+4.877900E+01,-1.373000E+01
+4.878900E+01,-1.373100E+01
+4.879900E+01,-1.373100E+01
+4.880900E+01,-1.373100E+01
+4.881900E+01,-1.372900E+01
+4.882900E+01,-1.372800E+01
+4.883900E+01,-1.373000E+01
+4.884900E+01,-1.373100E+01
+4.885900E+01,-1.373100E+01
+4.886900E+01,-1.373100E+01
+4.887900E+01,-1.372900E+01
+4.888900E+01,-1.373200E+01
+4.889900E+01,-1.372900E+01
+4.890900E+01,-1.373100E+01
+4.891900E+01,-1.373400E+01
+4.892900E+01,-1.373100E+01
+4.893900E+01,-1.373100E+01
+4.894900E+01,-1.372900E+01
+4.895900E+01,-1.373200E+01
+4.896900E+01,-1.372900E+01
+4.897900E+01,-1.373100E+01
+4.898900E+01,-1.372900E+01
+4.899900E+01,-1.372800E+01
+4.900900E+01,-1.373100E+01
+4.901900E+01,-1.372500E+01
+4.902900E+01,-1.373600E+01
+4.903900E+01,-1.372800E+01
+4.904900E+01,-1.373500E+01
+4.905900E+01,-1.373100E+01
+4.906900E+01,-1.373100E+01
+4.907900E+01,-1.373800E+01
+4.908900E+01,-1.373800E+01
+4.909900E+01,-1.372600E+01
+4.910900E+01,-1.374400E+01
+4.911900E+01,-1.372100E+01
+4.912900E+01,-1.373900E+01
+4.913900E+01,-1.372100E+01
+4.914900E+01,-1.373100E+01
+4.915900E+01,-1.372400E+01
+4.916900E+01,-1.372200E+01
+4.917900E+01,-1.373600E+01
+4.918900E+01,-1.371700E+01
+4.919900E+01,-1.374700E+01
+4.920900E+01,-1.372100E+01
+4.921900E+01,-1.373800E+01
+4.922900E+01,-1.373600E+01
+4.923900E+01,-1.372800E+01
+4.924900E+01,-1.374100E+01
+4.928400E+01,-1.372200E+01
+4.929400E+01,-1.373600E+01
+4.930400E+01,-1.372500E+01
+4.931400E+01,-1.372900E+01
+4.932400E+01,-1.373400E+01
+4.933400E+01,-1.372400E+01
+4.934400E+01,-1.373200E+01
+4.935400E+01,-1.372600E+01
+4.936400E+01,-1.373800E+01
+4.937400E+01,-1.372900E+01
+4.938400E+01,-1.373300E+01
+4.939400E+01,-1.373100E+01
+4.940400E+01,-1.372700E+01
+4.941400E+01,-1.373200E+01
+4.942400E+01,-1.373100E+01
+4.943400E+01,-1.373300E+01
+4.944400E+01,-1.373200E+01
+4.945400E+01,-1.373200E+01
+4.946400E+01,-1.373200E+01
+4.947400E+01,-1.373100E+01
+4.948400E+01,-1.373100E+01
+4.949400E+01,-1.373200E+01
+4.950400E+01,-1.373300E+01
+4.951400E+01,-1.373100E+01
+4.952400E+01,-1.373200E+01
+4.953400E+01,-1.373300E+01
+4.954400E+01,-1.373200E+01
+4.955400E+01,-1.373400E+01
+4.956400E+01,-1.373300E+01
+4.957400E+01,-1.373400E+01
+4.958400E+01,-1.373400E+01
+4.959400E+01,-1.373100E+01
+4.960400E+01,-1.373300E+01
+4.961400E+01,-1.373100E+01
+4.962400E+01,-1.373100E+01
+4.963400E+01,-1.373200E+01
+4.964400E+01,-1.373300E+01
+4.965400E+01,-1.373100E+01
+4.966400E+01,-1.373800E+01
+4.967400E+01,-1.372600E+01
+4.968400E+01,-1.373400E+01
+4.969400E+01,-1.373200E+01
+4.970400E+01,-1.372600E+01
+4.971400E+01,-1.374300E+01
+4.972400E+01,-1.373200E+01
+4.973400E+01,-1.372700E+01
+4.974400E+01,-1.373600E+01
+4.975400E+01,-1.372900E+01
+4.976400E+01,-1.373500E+01
+4.977400E+01,-1.373300E+01
+4.978400E+01,-1.373500E+01
+4.979400E+01,-1.374100E+01
+4.980400E+01,-1.372700E+01
+4.981400E+01,-1.373900E+01
+4.982400E+01,-1.373500E+01
+4.983400E+01,-1.373500E+01
+4.984400E+01,-1.374100E+01
+4.985400E+01,-1.372000E+01
+4.986400E+01,-1.372900E+01
+4.987400E+01,-1.373600E+01
+4.988400E+01,-1.373800E+01
+4.989400E+01,-1.373400E+01
+4.990400E+01,-1.373300E+01
+4.991400E+01,-1.372600E+01
+4.992400E+01,-1.373500E+01
+4.993400E+01,-1.373500E+01
+4.994400E+01,-1.373600E+01
+4.995400E+01,-1.374500E+01
+4.996400E+01,-1.373200E+01
+4.997400E+01,-1.372900E+01
+4.998400E+01,-1.374400E+01
+4.999400E+01,-1.373500E+01
+5.000400E+01,-1.374000E+01
+5.001400E+01,-1.373400E+01
+5.002400E+01,-1.373600E+01
+5.003400E+01,-1.373100E+01
+5.004400E+01,-1.373400E+01
+5.005400E+01,-1.372600E+01
+5.006400E+01,-1.373800E+01
+5.007400E+01,-1.373300E+01
+5.008400E+01,-1.373000E+01
+5.009400E+01,-1.373400E+01
+5.010400E+01,-1.372800E+01
+5.011400E+01,-1.373600E+01
+5.012400E+01,-1.372600E+01
+5.013400E+01,-1.374500E+01
+5.014400E+01,-1.372300E+01
+5.015400E+01,-1.374700E+01
+5.016400E+01,-1.372800E+01
+5.017400E+01,-1.374500E+01
+5.018400E+01,-1.373800E+01
+5.019400E+01,-1.374100E+01
+5.020400E+01,-1.374200E+01
+5.021400E+01,-1.372400E+01
+5.022400E+01,-1.375300E+01
+5.023400E+01,-1.372500E+01
+5.024400E+01,-1.374900E+01
+5.025400E+01,-1.372300E+01
+5.026400E+01,-1.374100E+01
+5.027400E+01,-1.372200E+01
+5.028400E+01,-1.373700E+01
+5.029400E+01,-1.372900E+01
+5.030400E+01,-1.373200E+01
+5.031400E+01,-1.373500E+01
+5.032400E+01,-1.372700E+01
+5.033400E+01,-1.373700E+01
+5.034400E+01,-1.372900E+01
+5.035400E+01,-1.374000E+01
+5.036400E+01,-1.373100E+01
+5.037400E+01,-1.373800E+01
+5.038400E+01,-1.373200E+01
+5.039400E+01,-1.373700E+01
+5.040400E+01,-1.373400E+01
+5.041400E+01,-1.373900E+01
+5.042400E+01,-1.373600E+01
+5.043400E+01,-1.373600E+01
+5.044400E+01,-1.373500E+01
+5.045400E+01,-1.373600E+01
+5.046400E+01,-1.373700E+01
+5.047400E+01,-1.373800E+01
+5.048400E+01,-1.373300E+01
+5.049400E+01,-1.373700E+01
+5.050400E+01,-1.373600E+01
+5.051400E+01,-1.373400E+01
+5.052400E+01,-1.373300E+01
+5.053400E+01,-1.373600E+01
+5.054400E+01,-1.373500E+01
+5.055400E+01,-1.373500E+01
+5.056400E+01,-1.373400E+01
+5.057400E+01,-1.373600E+01
+5.058400E+01,-1.373500E+01
+5.059400E+01,-1.373600E+01
+5.060400E+01,-1.373100E+01
+5.061400E+01,-1.373400E+01
+5.062400E+01,-1.373500E+01
+5.063400E+01,-1.373500E+01
+5.064400E+01,-1.373500E+01
+5.065400E+01,-1.373700E+01
+5.066400E+01,-1.373300E+01
+5.067400E+01,-1.373600E+01
+5.068400E+01,-1.373600E+01
+5.069400E+01,-1.373300E+01
+5.070400E+01,-1.373400E+01
+5.071400E+01,-1.373400E+01
+5.072400E+01,-1.373400E+01
+5.073400E+01,-1.373500E+01
+5.074400E+01,-1.373600E+01
+5.075400E+01,-1.373400E+01
+5.076400E+01,-1.373400E+01
+5.077400E+01,-1.373500E+01
+5.078400E+01,-1.373500E+01
+5.079400E+01,-1.373300E+01
+5.080400E+01,-1.373400E+01
+5.081400E+01,-1.373100E+01
+5.082400E+01,-1.373200E+01
+5.083400E+01,-1.373200E+01
+5.084400E+01,-1.373400E+01
+5.085400E+01,-1.373300E+01
+5.086400E+01,-1.373500E+01
+5.087400E+01,-1.373400E+01
+5.088400E+01,-1.373200E+01
+5.089400E+01,-1.373500E+01
+5.090400E+01,-1.373500E+01
+5.091400E+01,-1.373400E+01
+5.092400E+01,-1.373300E+01
+5.093400E+01,-1.373400E+01
+5.094400E+01,-1.373500E+01
+5.095400E+01,-1.373400E+01
+5.096400E+01,-1.373500E+01
+5.097400E+01,-1.373500E+01
+5.098400E+01,-1.373500E+01
+5.099400E+01,-1.373400E+01
+5.100400E+01,-1.373500E+01
+5.101400E+01,-1.373700E+01
+5.102400E+01,-1.373300E+01
+5.103400E+01,-1.373800E+01
+5.104400E+01,-1.373400E+01
+5.105400E+01,-1.373600E+01
+5.106400E+01,-1.373400E+01
+5.107400E+01,-1.373800E+01
+5.108400E+01,-1.373400E+01
+5.109400E+01,-1.373900E+01
+5.110400E+01,-1.373800E+01
+5.111400E+01,-1.373600E+01
+5.112400E+01,-1.374100E+01
+5.113400E+01,-1.373200E+01
+5.114400E+01,-1.374200E+01
+5.115400E+01,-1.373600E+01
+5.116400E+01,-1.374700E+01
+5.117400E+01,-1.373600E+01
+5.118400E+01,-1.374800E+01
+5.119400E+01,-1.372700E+01
+5.120400E+01,-1.375200E+01
+5.121400E+01,-1.372500E+01
+5.122400E+01,-1.374700E+01
+5.123400E+01,-1.372400E+01
+5.124400E+01,-1.374500E+01
+5.125400E+01,-1.373200E+01
+5.126400E+01,-1.373700E+01
+5.127400E+01,-1.373400E+01
+5.128400E+01,-1.373700E+01
+5.129400E+01,-1.373400E+01
+5.130400E+01,-1.373500E+01
+5.131400E+01,-1.373800E+01
+5.132400E+01,-1.372300E+01
+5.133400E+01,-1.374100E+01
+5.134400E+01,-1.372900E+01
+5.135400E+01,-1.374200E+01
+5.136400E+01,-1.373100E+01
+5.137400E+01,-1.374300E+01
+5.138400E+01,-1.373000E+01
+5.139400E+01,-1.374800E+01
+5.140400E+01,-1.373300E+01
+5.141400E+01,-1.373700E+01
+5.142400E+01,-1.373700E+01
+5.143400E+01,-1.373700E+01
+5.144400E+01,-1.374900E+01
+5.145400E+01,-1.373200E+01
+5.146400E+01,-1.373400E+01
+5.147400E+01,-1.374100E+01
+5.148400E+01,-1.373800E+01
+5.149400E+01,-1.373700E+01
+5.150400E+01,-1.374000E+01
+5.151400E+01,-1.373100E+01
+5.152400E+01,-1.374500E+01
+5.153400E+01,-1.373400E+01
+5.154400E+01,-1.373600E+01
+5.155400E+01,-1.373800E+01
+5.156400E+01,-1.373100E+01
+5.157400E+01,-1.374600E+01
+5.158400E+01,-1.373100E+01
+5.159400E+01,-1.373800E+01
+5.160400E+01,-1.374200E+01
+5.161400E+01,-1.374200E+01
+5.162400E+01,-1.374100E+01
+5.163400E+01,-1.374500E+01
+5.164400E+01,-1.373700E+01
+5.165400E+01,-1.373800E+01
+5.166400E+01,-1.373400E+01
+5.167400E+01,-1.374100E+01
+5.168400E+01,-1.374100E+01
+5.169400E+01,-1.373600E+01
+5.170400E+01,-1.374100E+01
+5.171400E+01,-1.373700E+01
+5.172400E+01,-1.373600E+01
+5.173400E+01,-1.373900E+01
+5.174400E+01,-1.374100E+01
+5.175400E+01,-1.373700E+01
+5.176400E+01,-1.373800E+01
+5.177400E+01,-1.373800E+01
+5.178400E+01,-1.373700E+01
+5.179400E+01,-1.374100E+01
+5.180400E+01,-1.373800E+01
+5.181400E+01,-1.374000E+01
+5.182400E+01,-1.374100E+01
+5.183400E+01,-1.373800E+01
+5.184400E+01,-1.373800E+01
+5.185400E+01,-1.373700E+01
+5.186400E+01,-1.373800E+01
+5.187400E+01,-1.373900E+01
+5.188400E+01,-1.373900E+01
+5.189400E+01,-1.374000E+01
+5.190400E+01,-1.374200E+01
+5.191400E+01,-1.374100E+01
+5.192400E+01,-1.374100E+01
+5.193400E+01,-1.374200E+01
+5.194400E+01,-1.374100E+01
+5.195400E+01,-1.373900E+01
+5.196400E+01,-1.373900E+01
+5.197400E+01,-1.374100E+01
+5.198400E+01,-1.373800E+01
+5.199400E+01,-1.374100E+01
+5.200400E+01,-1.374100E+01
+5.201400E+01,-1.374100E+01
+5.202400E+01,-1.374100E+01
+5.203400E+01,-1.374000E+01
+5.204400E+01,-1.374000E+01
+5.205400E+01,-1.373900E+01
+5.206400E+01,-1.374100E+01
+5.207400E+01,-1.373800E+01
+5.208400E+01,-1.374500E+01
+5.209400E+01,-1.373500E+01
+5.210400E+01,-1.374600E+01
+5.211400E+01,-1.373700E+01
+5.212400E+01,-1.374700E+01
+5.213400E+01,-1.373900E+01
+5.214400E+01,-1.375000E+01
+5.215400E+01,-1.374200E+01
+5.216400E+01,-1.375000E+01
+5.217400E+01,-1.374800E+01
+5.218400E+01,-1.374600E+01
+5.219400E+01,-1.375000E+01
+5.220400E+01,-1.373700E+01
+5.221400E+01,-1.375600E+01
+5.222400E+01,-1.373400E+01
+5.223400E+01,-1.375600E+01
+5.224400E+01,-1.373500E+01
+5.225400E+01,-1.375000E+01
+5.226400E+01,-1.373200E+01
+5.227400E+01,-1.374600E+01
+5.228400E+01,-1.373000E+01
+5.229400E+01,-1.374500E+01
+5.230400E+01,-1.373600E+01
+5.231400E+01,-1.374200E+01
+5.232400E+01,-1.374200E+01
+5.233400E+01,-1.374200E+01
+5.234400E+01,-1.373700E+01
+5.235400E+01,-1.374900E+01
+5.236400E+01,-1.373400E+01
+5.237400E+01,-1.374700E+01
+5.238400E+01,-1.373600E+01
+5.239400E+01,-1.374900E+01
+5.240400E+01,-1.374000E+01
+5.241400E+01,-1.374600E+01
+5.242400E+01,-1.374200E+01
+5.243400E+01,-1.374500E+01
+5.244400E+01,-1.374500E+01
+5.245400E+01,-1.374500E+01
+5.246400E+01,-1.374500E+01
+5.247400E+01,-1.374600E+01
+5.248400E+01,-1.374700E+01
+5.249400E+01,-1.374400E+01
+5.250400E+01,-1.374600E+01
+5.251400E+01,-1.374300E+01
+5.252400E+01,-1.374700E+01
+5.253400E+01,-1.374600E+01
+5.254400E+01,-1.374500E+01
+5.255400E+01,-1.374500E+01
+5.256400E+01,-1.374700E+01
+5.257400E+01,-1.374700E+01
+5.258400E+01,-1.374500E+01
+5.259400E+01,-1.374800E+01
+5.260400E+01,-1.374700E+01
+5.261400E+01,-1.374800E+01
+5.262400E+01,-1.374600E+01
+5.263400E+01,-1.375100E+01
+5.264400E+01,-1.374800E+01
+5.265400E+01,-1.374800E+01
+5.266400E+01,-1.374900E+01
+5.267400E+01,-1.374900E+01
+5.268400E+01,-1.374700E+01
+5.269400E+01,-1.374800E+01
+5.270400E+01,-1.375100E+01
+5.271400E+01,-1.374800E+01
+5.272400E+01,-1.374900E+01
+5.273400E+01,-1.375000E+01
+5.274400E+01,-1.375200E+01
+5.275400E+01,-1.375000E+01
+5.276400E+01,-1.375000E+01
+5.277400E+01,-1.375400E+01
+5.278400E+01,-1.375300E+01
+5.279400E+01,-1.375200E+01
+5.280400E+01,-1.375000E+01
+5.281400E+01,-1.375400E+01
+5.282400E+01,-1.374800E+01
+5.283400E+01,-1.375200E+01
+5.284400E+01,-1.375500E+01
+5.285400E+01,-1.375400E+01
+5.286400E+01,-1.375200E+01
+5.287400E+01,-1.375200E+01
+5.288400E+01,-1.375100E+01
+5.289400E+01,-1.375200E+01
+5.290400E+01,-1.375800E+01
+5.291400E+01,-1.374800E+01
+5.292400E+01,-1.375600E+01
+5.293400E+01,-1.375600E+01
+5.294400E+01,-1.374200E+01
+5.295400E+01,-1.374800E+01
+5.296400E+01,-1.376000E+01
+5.297400E+01,-1.375300E+01
+5.298400E+01,-1.375400E+01
+5.299400E+01,-1.375700E+01
+5.300400E+01,-1.374400E+01
+5.301400E+01,-1.375100E+01
+5.302400E+01,-1.375800E+01
+5.303400E+01,-1.375400E+01
+5.304400E+01,-1.374400E+01
+5.305400E+01,-1.375100E+01
+5.306400E+01,-1.374800E+01
+5.307400E+01,-1.374900E+01
+5.308400E+01,-1.375800E+01
+5.309400E+01,-1.375200E+01
+5.310400E+01,-1.374200E+01
+5.311400E+01,-1.375200E+01
+5.312400E+01,-1.374400E+01
+5.313400E+01,-1.375300E+01
+5.314400E+01,-1.375400E+01
+5.315400E+01,-1.375200E+01
+5.316400E+01,-1.375500E+01
+5.317400E+01,-1.373600E+01
+5.318400E+01,-1.376400E+01
+5.319400E+01,-1.374300E+01
+5.320400E+01,-1.376800E+01
+5.321400E+01,-1.374700E+01
+5.322400E+01,-1.376800E+01
+5.323400E+01,-1.375500E+01
+5.324400E+01,-1.375400E+01
+5.325400E+01,-1.376000E+01
+5.326400E+01,-1.375700E+01
+5.327400E+01,-1.376800E+01
+5.328400E+01,-1.375200E+01
+5.329400E+01,-1.378100E+01
+5.330400E+01,-1.374700E+01
+5.331400E+01,-1.376700E+01
+5.332400E+01,-1.375700E+01
+5.333400E+01,-1.375500E+01
+5.334400E+01,-1.375700E+01
+5.335400E+01,-1.375700E+01
+5.336400E+01,-1.376500E+01
+5.337400E+01,-1.375400E+01
+5.338400E+01,-1.376800E+01
+5.339400E+01,-1.375700E+01
+5.340400E+01,-1.376600E+01
+5.341400E+01,-1.376100E+01
+5.342400E+01,-1.376300E+01
+5.343400E+01,-1.375900E+01
+5.344400E+01,-1.376200E+01
+5.345400E+01,-1.376300E+01
+5.346400E+01,-1.376100E+01
+5.347400E+01,-1.376100E+01
+5.348400E+01,-1.375900E+01
+5.349400E+01,-1.376000E+01
+5.350400E+01,-1.376200E+01
+5.351400E+01,-1.376000E+01
+5.352400E+01,-1.376200E+01
+5.353400E+01,-1.375900E+01
+5.354400E+01,-1.376200E+01
+5.355400E+01,-1.375800E+01
+5.356400E+01,-1.376200E+01
+5.357400E+01,-1.376000E+01
+5.358400E+01,-1.375900E+01
+5.359400E+01,-1.376000E+01
+5.360400E+01,-1.376100E+01
+5.361400E+01,-1.376100E+01
+5.362400E+01,-1.376200E+01
+5.363400E+01,-1.376100E+01
+5.364400E+01,-1.376300E+01
+5.365400E+01,-1.376100E+01
+5.366400E+01,-1.376000E+01
+5.367400E+01,-1.376100E+01
+5.368400E+01,-1.376200E+01
+5.369400E+01,-1.376300E+01
+5.370400E+01,-1.376100E+01
+5.371400E+01,-1.376100E+01
+5.372400E+01,-1.376300E+01
+5.373400E+01,-1.376300E+01
+5.374400E+01,-1.376300E+01
+5.375400E+01,-1.376300E+01
+5.376400E+01,-1.376400E+01
+5.377400E+01,-1.376500E+01
+5.378400E+01,-1.376500E+01
+5.379400E+01,-1.376600E+01
+5.380400E+01,-1.376500E+01
+5.381400E+01,-1.376700E+01
+5.382400E+01,-1.376600E+01
+5.383400E+01,-1.376500E+01
+5.384400E+01,-1.376600E+01
+5.385400E+01,-1.376700E+01
+5.386400E+01,-1.376800E+01
+5.387400E+01,-1.376900E+01
+5.388400E+01,-1.376800E+01
+5.389400E+01,-1.376600E+01
+5.390400E+01,-1.376700E+01
+5.391400E+01,-1.376400E+01
+5.392400E+01,-1.377200E+01
+5.393400E+01,-1.377200E+01
+5.394400E+01,-1.377200E+01
+5.395400E+01,-1.377500E+01
+5.396400E+01,-1.377500E+01
+5.397400E+01,-1.377700E+01
+5.398400E+01,-1.377800E+01
+5.399400E+01,-1.377900E+01
+5.400400E+01,-1.377900E+01
+5.401400E+01,-1.377600E+01
+5.402400E+01,-1.377900E+01
+5.403400E+01,-1.377700E+01
+5.404400E+01,-1.377700E+01
+5.405400E+01,-1.377400E+01
+5.406400E+01,-1.378400E+01
+5.407400E+01,-1.378000E+01
+5.408400E+01,-1.378000E+01
+5.409400E+01,-1.378400E+01
+5.410400E+01,-1.377900E+01
+5.411400E+01,-1.378600E+01
+5.412400E+01,-1.377900E+01
+5.413400E+01,-1.379300E+01
+5.414400E+01,-1.377900E+01
+5.415400E+01,-1.378900E+01
+5.416400E+01,-1.378400E+01
+5.417400E+01,-1.378400E+01
+5.418400E+01,-1.379200E+01
+5.419400E+01,-1.377800E+01
+5.420400E+01,-1.380000E+01
+5.421400E+01,-1.377900E+01
+5.422400E+01,-1.379900E+01
+5.423400E+01,-1.378600E+01
+5.424400E+01,-1.379800E+01
+5.425400E+01,-1.379500E+01
+5.426400E+01,-1.378100E+01
+5.427400E+01,-1.380100E+01
+5.428400E+01,-1.377800E+01
+5.429400E+01,-1.380400E+01
+5.430400E+01,-1.377500E+01
+5.431400E+01,-1.379900E+01
+5.432400E+01,-1.377600E+01
+5.433400E+01,-1.379300E+01
+5.434400E+01,-1.378300E+01
+5.435400E+01,-1.378400E+01
+5.436400E+01,-1.379100E+01
+5.437400E+01,-1.378100E+01
+5.438400E+01,-1.379500E+01
+5.439400E+01,-1.378600E+01
+5.440400E+01,-1.379800E+01
+5.441400E+01,-1.378800E+01
+5.442400E+01,-1.379700E+01
+5.443400E+01,-1.379000E+01
+5.444400E+01,-1.378900E+01
+5.445400E+01,-1.379100E+01
+5.446400E+01,-1.378600E+01
+5.447400E+01,-1.379300E+01
+5.448400E+01,-1.379000E+01
+5.449400E+01,-1.378800E+01
+5.450400E+01,-1.379100E+01
+5.451400E+01,-1.379500E+01
+5.452400E+01,-1.379100E+01
+5.453400E+01,-1.379300E+01
+5.454400E+01,-1.380000E+01
