+1.167200E+01,-3.560256E+01
+1.168000E+01,-1.458333E+02
+1.168800E+01,-1.416154E+02
+1.169600E+01,-9.037179E+01
+1.170400E+01,-5.280769E+01
+1.171200E+01,-3.405128E+01
+1.172000E+01,-1.883333E+01
+1.172800E+01,-7.794872E+00
+1.173600E+01,-9.538462E+00
+1.174400E+01,-1.919231E+01
+1.175200E+01,-2.296154E+01
+1.176000E+01,-1.524359E+01
+1.176800E+01,-3.987179E+00
+1.177600E+01,+1.384615E+00
+1.178400E+01,+3.576923E+00
+1.179200E+01,+9.384615E+00
+1.180000E+01,+1.802564E+01
+1.180800E+01,+2.861538E+01
+1.181600E+01,+4.473077E+01
+1.182400E+01,+6.143590E+01
+1.183200E+01,+6.501282E+01
+1.184000E+01,+5.316667E+01
+1.184800E+01,+4.267949E+01
+1.185600E+01,+4.562821E+01
+1.186400E+01,+5.251282E+01
+1.187200E+01,+5.503846E+01
+1.188000E+01,+5.862821E+01
+1.188800E+01,+6.567949E+01
+1.189600E+01,+7.432051E+01
+1.190400E+01,+7.616667E+01
+1.191200E+01,+7.075641E+01
+1.192000E+01,+5.728205E+01
+1.192800E+01,+3.987179E+01
+1.193600E+01,+2.491026E+01
+1.194400E+01,+1.101282E+01
+1.195200E+01,-6.628205E+00
+1.196000E+01,-2.380769E+01
+1.196800E+01,-3.092308E+01
+1.197600E+01,-2.730769E+01
+1.198400E+01,-2.426923E+01
+1.199200E+01,-2.797436E+01
+1.200000E+01,-3.167949E+01
+1.200800E+01,-2.635897E+01
+1.201600E+01,-1.442308E+01
+1.202400E+01,-8.346154E+00
+1.203200E+01,-1.488462E+01
+1.204000E+01,-2.819231E+01
+1.204800E+01,-3.598718E+01
+1.205600E+01,-3.339744E+01
+1.206400E+01,-2.760256E+01
+1.207200E+01,-2.606410E+01
+1.208000E+01,-2.932051E+01
+1.208800E+01,-3.452564E+01
+1.209600E+01,-4.006410E+01
+1.210400E+01,-4.453846E+01
+1.211200E+01,-4.392308E+01
+1.212000E+01,-3.935897E+01
+1.212800E+01,-3.796154E+01
+1.213600E+01,-4.039744E+01
+1.214400E+01,-3.851282E+01
+1.215200E+01,-2.665385E+01
+1.216000E+01,-1.308974E+01
+1.216800E+01,-1.024359E+01
+1.217600E+01,-1.707692E+01
+1.218400E+01,-2.251282E+01
+1.219200E+01,-1.980769E+01
+1.220000E+01,-1.324359E+01
+1.220800E+01,-1.269231E+01
+1.221600E+01,-1.823077E+01
+1.222400E+01,-2.423077E+01
+1.223200E+01,-2.353846E+01
+1.224000E+01,-2.253846E+01
+1.224800E+01,-3.291026E+01
+1.225600E+01,-5.855128E+01
+1.226400E+01,-8.221795E+01
+1.227200E+01,-8.216667E+01
+1.228000E+01,-6.444872E+01
+1.228800E+01,-6.142308E+01
+1.229600E+01,-8.160256E+01
+1.230400E+01,-7.183333E+01
+1.231200E+01,+2.983333E+01
+1.232000E+01,+1.937179E+02
+1.232800E+01,+2.918974E+02
+1.233600E+01,+2.249231E+02
+1.234400E+01,+3.789744E+01
+1.235200E+01,-1.246923E+02
+1.236000E+01,-1.706795E+02
+1.236800E+01,-1.288462E+02
+1.237600E+01,-7.864103E+01
+1.238400E+01,-5.705128E+01
+1.239200E+01,-5.047436E+01
+1.240000E+01,-4.088462E+01
+1.240800E+01,-2.700000E+01
+1.241600E+01,-1.656410E+01
+1.242400E+01,-1.452564E+01
+1.243200E+01,-1.960256E+01
+1.244000E+01,-2.488462E+01
+1.244800E+01,-2.201282E+01
+1.245600E+01,-1.275641E+01
+1.246400E+01,-6.217949E+00
+1.247200E+01,-4.500000E+00
+1.248000E+01,-1.794872E-01
+1.248800E+01,+1.330769E+01
+1.249600E+01,+2.965385E+01
+1.250400E+01,+3.794872E+01
+1.251200E+01,+3.711538E+01
+1.252000E+01,+3.592308E+01
+1.252800E+01,+4.398718E+01
+1.253600E+01,+5.941026E+01
+1.254400E+01,+6.291026E+01
+1.255200E+01,+5.370513E+01
+1.256000E+01,+3.842308E+01
+1.256800E+01,+3.698718E+01
+1.257600E+01,+4.484615E+01
+1.258400E+01,+5.161538E+01
+1.259200E+01,+4.729487E+01
+1.260000E+01,+3.383333E+01
+1.260800E+01,+2.265385E+01
+1.261600E+01,+2.029487E+01
+1.262400E+01,+1.897436E+01
+1.263200E+01,+4.615385E+00
+1.264000E+01,-2.287179E+01
+1.264800E+01,-4.711538E+01
+1.265600E+01,-5.333333E+01
+1.266400E+01,-4.410256E+01
+1.267200E+01,-3.321795E+01
+1.268000E+01,-2.798718E+01
+1.268800E+01,-2.708974E+01
+1.269600E+01,-2.792308E+01
+1.270400E+01,-2.894872E+01
+1.271200E+01,-2.760256E+01
+1.272000E+01,-2.311538E+01
+1.272800E+01,-2.176923E+01
+1.273600E+01,-2.967949E+01
+1.274400E+01,-4.306410E+01
+1.275200E+01,-5.026923E+01
+1.276000E+01,-4.684615E+01
+1.276800E+01,-3.929487E+01
+1.277600E+01,-3.258974E+01
+1.278400E+01,-2.665385E+01
+1.279200E+01,-2.369231E+01
+1.280000E+01,-2.979487E+01
+1.280800E+01,-4.291026E+01
+1.281600E+01,-5.037179E+01
+1.282400E+01,-4.301282E+01
+1.283200E+01,-2.406410E+01
+1.284000E+01,-4.987179E+00
+1.284800E+01,+4.615385E+00
+1.285600E+01,+3.858974E+00
+1.286400E+01,-1.641026E+00
+1.287200E+01,-1.021795E+01
+1.288000E+01,-2.210256E+01
+1.288800E+01,-3.419231E+01
+1.289600E+01,-3.903846E+01
+1.290400E+01,-3.785897E+01
+1.291200E+01,-3.906410E+01
+1.292000E+01,-4.751282E+01
+1.292800E+01,-5.483333E+01
+1.293600E+01,-5.192308E+01
+1.294400E+01,-4.361538E+01
+1.295200E+01,-4.851282E+01
+1.296000E+01,-7.765385E+01
+1.296800E+01,-9.741026E+01
+1.297600E+01,-4.176923E+01
+1.298400E+01,+1.063205E+02
+1.299200E+01,+2.518205E+02
+1.300000E+01,+2.608590E+02
+1.300800E+01,+1.140641E+02
+1.301600E+01,-6.580769E+01
+1.302400E+01,-1.498974E+02
+1.303200E+01,-1.288333E+02
+1.304000E+01,-7.987179E+01
+1.304800E+01,-5.482051E+01
+1.305600E+01,-5.001282E+01
+1.306400E+01,-4.678205E+01
+1.307200E+01,-4.137179E+01
+1.308000E+01,-3.533333E+01
+1.308800E+01,-2.537179E+01
+1.309600E+01,-1.434615E+01
+1.310400E+01,-7.576923E+00
+1.311200E+01,-4.717949E+00
+1.312000E+01,-2.064103E+00
+1.312800E+01,+2.025641E+00
+1.313600E+01,+4.602564E+00
+1.314400E+01,+4.679487E+00
+1.315200E+01,+5.756410E+00
+1.316000E+01,+1.325641E+01
+1.316800E+01,+2.646154E+01
+1.317600E+01,+3.770513E+01
+1.318400E+01,+4.370513E+01
+1.319200E+01,+5.021795E+01
+1.320000E+01,+6.166667E+01
+1.320800E+01,+6.382051E+01
+1.321600E+01,+5.469231E+01
+1.322400E+01,+4.206410E+01
+1.323200E+01,+4.329487E+01
+1.324000E+01,+5.111538E+01
+1.324800E+01,+5.479487E+01
+1.325600E+01,+5.335897E+01
+1.326400E+01,+5.335897E+01
+1.327200E+01,+5.392308E+01
+1.328000E+01,+4.515385E+01
+1.328800E+01,+2.217949E+01
+1.329600E+01,-6.500000E+00
+1.330400E+01,-2.656410E+01
+1.331200E+01,-3.250000E+01
+1.332000E+01,-3.011538E+01
+1.332800E+01,-2.511538E+01
+1.333600E+01,-1.980769E+01
+1.334400E+01,-1.753846E+01
+1.335200E+01,-1.921795E+01
+1.336000E+01,-1.793590E+01
+1.336800E+01,-8.025641E+00
+1.337600E+01,-7.179487E-01
+1.338400E+01,-1.215385E+01
+1.339200E+01,-3.650000E+01
+1.340000E+01,-5.020513E+01
+1.340800E+01,-4.173077E+01
+1.341600E+01,-2.598718E+01
+1.342400E+01,-1.971795E+01
+1.343200E+01,-2.114103E+01
+1.344000E+01,-2.203846E+01
+1.344800E+01,-2.029487E+01
+1.345600E+01,-1.911538E+01
+1.346400E+01,-1.838462E+01
+1.347200E+01,-1.770513E+01
+1.348000E+01,-2.180769E+01
+1.348800E+01,-3.076923E+01
+1.349600E+01,-3.842308E+01
+1.350400E+01,-3.810256E+01
+1.351200E+01,-2.894872E+01
+1.352000E+01,-1.684615E+01
+1.352800E+01,-7.294872E+00
+1.353600E+01,+3.089744E+00
+1.354400E+01,+1.830769E+01
+1.355200E+01,+3.212821E+01
+1.356000E+01,+2.942308E+01
+1.356800E+01,+5.256410E+00
+1.357600E+01,-2.500000E+01
+1.358400E+01,-4.107692E+01
+1.359200E+01,-4.071795E+01
+1.360000E+01,-3.697436E+01
+1.360800E+01,-3.914103E+01
+1.361600E+01,-4.269231E+01
+1.362400E+01,-3.961538E+01
+1.363200E+01,-3.023077E+01
+1.364000E+01,-2.591026E+01
+1.364800E+01,-4.201282E+01
+1.365600E+01,-6.921795E+01
+1.366400E+01,-5.417949E+01
+1.367200E+01,+5.025641E+01
+1.368000E+01,+2.008077E+02
+1.368800E+01,+2.708590E+02
+1.369600E+01,+1.813590E+02
+1.370400E+01,-1.179487E+00
+1.371200E+01,-1.337436E+02
+1.372000E+01,-1.446538E+02
+1.372800E+01,-8.110256E+01
+1.373600E+01,-2.583333E+01
+1.374400E+01,-1.274359E+01
+1.375200E+01,-2.498718E+01
+1.376000E+01,-3.589744E+01
+1.376800E+01,-3.479487E+01
+1.377600E+01,-2.538462E+01
+1.378400E+01,-1.510256E+01
+1.379200E+01,-6.102564E+00
+1.380000E+01,+1.564103E+00
+1.380800E+01,+6.807692E+00
+1.381600E+01,+1.047436E+01
+1.382400E+01,+1.565385E+01
+1.383200E+01,+2.233333E+01
+1.384000E+01,+2.508974E+01
+1.384800E+01,+2.341026E+01
+1.385600E+01,+2.393590E+01
+1.386400E+01,+3.202564E+01
+1.387200E+01,+4.748718E+01
+1.388000E+01,+5.796154E+01
+1.388800E+01,+6.206410E+01
+1.389600E+01,+6.182051E+01
+1.390400E+01,+6.688462E+01
+1.391200E+01,+7.260256E+01
+1.392000E+01,+7.169231E+01
+1.392800E+01,+6.280769E+01
+1.393600E+01,+5.419231E+01
+1.394400E+01,+5.255128E+01
+1.395200E+01,+5.220513E+01
+1.396000E+01,+4.676923E+01
+1.396800E+01,+3.676923E+01
+1.397600E+01,+2.641026E+01
+1.398400E+01,+1.839744E+01
+1.399200E+01,+1.183333E+01
+1.400000E+01,+6.692308E+00
+1.400800E+01,+5.641026E-01
+1.401600E+01,-9.166667E+00
+1.402400E+01,-1.869231E+01
+1.403200E+01,-2.317949E+01
+1.404000E+01,-2.208974E+01
+1.404800E+01,-1.837179E+01
+1.405600E+01,-1.578205E+01
+1.406400E+01,-1.556410E+01
+1.407200E+01,-1.789744E+01
+1.408000E+01,-1.798718E+01
+1.408800E+01,-1.266667E+01
+1.409600E+01,-1.097436E+01
+1.410400E+01,-2.150000E+01
+1.411200E+01,-3.721795E+01
+1.412000E+01,-4.014103E+01
+1.412800E+01,-2.775641E+01
+1.413600E+01,-1.780769E+01
+1.414400E+01,-2.050000E+01
+1.415200E+01,-2.837179E+01
+1.416000E+01,-2.920513E+01
+1.416800E+01,-2.132051E+01
+1.417600E+01,-1.285897E+01
+1.418400E+01,-1.116667E+01
+1.419200E+01,-1.943590E+01
+1.420000E+01,-3.279487E+01
+1.420800E+01,-3.258974E+01
+1.421600E+01,-1.971795E+01
+1.422400E+01,+9.230769E-01
+1.423200E+01,+1.343590E+01
+1.424000E+01,+2.070513E+01
+1.424800E+01,+2.448718E+01
+1.425600E+01,+2.334615E+01
+1.426400E+01,+1.510256E+01
+1.427200E+01,+1.282051E-01
+1.428000E+01,-1.724359E+01
+1.428800E+01,-3.278205E+01
+1.429600E+01,-4.378205E+01
+1.430400E+01,-4.921795E+01
+1.431200E+01,-4.970513E+01
+1.432000E+01,-4.384615E+01
+1.432800E+01,-3.369231E+01
+1.433600E+01,-3.070513E+01
+1.434400E+01,-4.994872E+01
+1.435200E+01,-8.033333E+01
+1.436000E+01,-6.441026E+01
+1.436800E+01,+4.571795E+01
+1.437600E+01,+2.058718E+02
+1.438400E+01,+2.875256E+02
+1.439200E+01,+2.045641E+02
+1.440000E+01,+1.723077E+01
+1.440800E+01,-1.316538E+02
+1.441600E+01,-1.628718E+02
+1.442400E+01,-1.128846E+02
+1.443200E+01,-5.901282E+01
+1.444000E+01,-3.638462E+01
+1.444800E+01,-3.265385E+01
+1.445600E+01,-2.598718E+01
+1.446400E+01,-1.002564E+01
+1.447200E+01,+2.884615E+00
+1.448000E+01,-3.333333E-01
+1.448800E+01,-1.583333E+01
+1.449600E+01,-2.444872E+01
+1.450400E+01,-1.396154E+01
+1.451200E+01,+3.141026E+00
+1.452000E+01,+1.057692E+01
+1.452800E+01,+1.202564E+01
+1.453600E+01,+2.744872E+01
+1.454400E+01,+4.541026E+01
+1.455200E+01,+5.229487E+01
+1.456000E+01,+3.921795E+01
+1.456800E+01,+3.101282E+01
+1.457600E+01,+3.688462E+01
+1.458400E+01,+5.137179E+01
+1.459200E+01,+6.221795E+01
+1.460000E+01,+6.511538E+01
+1.460800E+01,+6.508974E+01
+1.461600E+01,+6.758974E+01
+1.462400E+01,+7.115385E+01
+1.463200E+01,+7.189744E+01
+1.464000E+01,+6.991026E+01
+1.464800E+01,+6.497436E+01
+1.465600E+01,+5.466667E+01
+1.466400E+01,+3.878205E+01
+1.467200E+01,+2.225641E+01
+1.468000E+01,+1.082051E+01
+1.468800E+01,+2.307692E+00
+1.469600E+01,-6.538462E+00
+1.470400E+01,-1.442308E+01
+1.471200E+01,-1.867949E+01
+1.472000E+01,-1.879487E+01
+1.472800E+01,-1.666667E+01
+1.473600E+01,-1.398718E+01
+1.474400E+01,-1.460256E+01
+1.475200E+01,-2.275641E+01
+1.476000E+01,-3.369231E+01
+1.476800E+01,-3.697436E+01
+1.477600E+01,-2.811538E+01
+1.478400E+01,-1.553846E+01
+1.479200E+01,-1.055128E+01
+1.480000E+01,-1.467949E+01
+1.480800E+01,-2.075641E+01
+1.481600E+01,-2.357692E+01
+1.482400E+01,-2.420513E+01
+1.483200E+01,-2.352564E+01
+1.484000E+01,-2.079487E+01
+1.484800E+01,-1.833333E+01
+1.485600E+01,-2.111538E+01
+1.486400E+01,-2.946154E+01
+1.487200E+01,-3.697436E+01
+1.488000E+01,-3.891026E+01
+1.488800E+01,-3.611538E+01
+1.489600E+01,-3.212821E+01
+1.490400E+01,-2.673077E+01
+1.491200E+01,-1.975641E+01
+1.492000E+01,-1.070513E+01
+1.492800E+01,-1.153846E+00
+1.493600E+01,+6.397436E+00
+1.494400E+01,+1.257692E+01
+1.495200E+01,+1.732051E+01
+1.496000E+01,+1.807692E+01
+1.496800E+01,+1.046154E+01
+1.497600E+01,-4.692308E+00
+1.498400E+01,-2.092308E+01
+1.499200E+01,-3.487179E+01
+1.500000E+01,-4.600000E+01
+1.500800E+01,-5.393590E+01
+1.501600E+01,-5.678205E+01
+1.502400E+01,-5.253846E+01
+1.503200E+01,-4.208974E+01
+1.504000E+01,-2.900000E+01
+1.504800E+01,-2.782051E+01
+1.505600E+01,-5.296154E+01
+1.506400E+01,-7.925641E+01
+1.507200E+01,-3.955128E+01
+1.508000E+01,+9.601282E+01
+1.508800E+01,+2.424872E+02
+1.509600E+01,+2.623846E+02
+1.510400E+01,+1.226795E+02
+1.511200E+01,-6.226923E+01
+1.512000E+01,-1.583333E+02
+1.512800E+01,-1.396154E+02
+1.513600E+01,-7.428205E+01
+1.514400E+01,-2.633333E+01
+1.515200E+01,-1.310256E+01
+1.516000E+01,-2.457692E+01
+1.516800E+01,-4.197436E+01
+1.517600E+01,-4.715385E+01
+1.518400E+01,-3.408974E+01
+1.519200E+01,-1.429487E+01
+1.520000E+01,-2.064103E+00
+1.520800E+01,+3.038462E+00
+1.521600E+01,+1.019231E+01
+1.522400E+01,+2.108974E+01
+1.523200E+01,+3.008974E+01
+1.524000E+01,+3.276923E+01
+1.524800E+01,+3.356410E+01
+1.525600E+01,+3.616667E+01
+1.526400E+01,+3.775641E+01
+1.527200E+01,+3.614103E+01
+1.528000E+01,+3.784615E+01
+1.528800E+01,+4.775641E+01
+1.529600E+01,+5.982051E+01
+1.530400E+01,+6.491026E+01
+1.531200E+01,+6.232051E+01
+1.532000E+01,+6.115385E+01
+1.532800E+01,+6.594872E+01
+1.533600E+01,+7.294872E+01
+1.534400E+01,+7.676923E+01
+1.535200E+01,+7.424359E+01
+1.536000E+01,+6.543590E+01
+1.536800E+01,+5.284615E+01
+1.537600E+01,+3.984615E+01
+1.538400E+01,+2.670513E+01
+1.539200E+01,+1.114103E+01
+1.540000E+01,-3.846154E+00
+1.540800E+01,-1.065385E+01
+1.541600E+01,-6.858974E+00
+1.542400E+01,-3.833333E+00
+1.543200E+01,-1.270513E+01
+1.544000E+01,-2.703846E+01
+1.544800E+01,-3.087179E+01
+1.545600E+01,-2.146154E+01
+1.546400E+01,-1.294872E+01
+1.547200E+01,-1.489744E+01
+1.548000E+01,-1.896154E+01
+1.548800E+01,-1.417949E+01
+1.549600E+01,-5.025641E+00
+1.550400E+01,-7.717949E+00
+1.551200E+01,-2.708974E+01
+1.552000E+01,-4.670513E+01
+1.552800E+01,-4.871795E+01
+1.553600E+01,-3.766667E+01
+1.554400E+01,-3.078205E+01
+1.555200E+01,-3.185897E+01
+1.556000E+01,-3.269231E+01
+1.556800E+01,-2.923077E+01
+1.557600E+01,-2.747436E+01
+1.558400E+01,-3.002564E+01
+1.559200E+01,-3.507692E+01
+1.560000E+01,-3.960256E+01
+1.560800E+01,-3.902564E+01
+1.561600E+01,-3.069231E+01
+1.562400E+01,-1.817949E+01
+1.563200E+01,-8.166667E+00
+1.564000E+01,-2.935897E+00
+1.564800E+01,+7.179487E-01
+1.565600E+01,+6.000000E+00
+1.566400E+01,+1.425641E+01
+1.567200E+01,+2.321795E+01
+1.568000E+01,+2.578205E+01
+1.568800E+01,+1.417949E+01
+1.569600E+01,-8.641026E+00
+1.570400E+01,-2.666667E+01
+1.571200E+01,-2.957692E+01
+1.572000E+01,-2.552564E+01
+1.572800E+01,-2.982051E+01
+1.573600E+01,-4.301282E+01
+1.574400E+01,-4.965385E+01
+1.575200E+01,-4.107692E+01
+1.576000E+01,-2.883333E+01
+1.576800E+01,-3.889744E+01
+1.577600E+01,-7.911538E+01
+1.578400E+01,-1.017949E+02
+1.579200E+01,-3.347436E+01
+1.580000E+01,+1.296667E+02
+1.580800E+01,+2.711923E+02
+1.581600E+01,+2.571410E+02
+1.582400E+01,+9.110256E+01
+1.583200E+01,-8.801282E+01
+1.584000E+01,-1.572436E+02
+1.584800E+01,-1.200897E+02
+1.585600E+01,-5.817949E+01
+1.586400E+01,-2.687179E+01
+1.587200E+01,-3.171795E+01
+1.588000E+01,-3.953846E+01
+1.588800E+01,-3.682051E+01
+1.589600E+01,-2.098718E+01
+1.590400E+01,-1.002564E+01
+1.591200E+01,-6.410256E+00
+1.592000E+01,-2.589744E+00
+1.592800E+01,+5.871795E+00
+1.593600E+01,+1.379487E+01
+1.594400E+01,+1.565385E+01
+1.595200E+01,+1.593590E+01
+1.596000E+01,+2.258974E+01
+1.596800E+01,+3.339744E+01
+1.597600E+01,+3.752564E+01
+1.598400E+01,+3.279487E+01
+1.599200E+01,+3.173077E+01
+1.600000E+01,+4.300000E+01
+1.600800E+01,+5.755128E+01
+1.601600E+01,+6.366667E+01
+1.602400E+01,+6.365385E+01
+1.603200E+01,+6.525641E+01
+1.604000E+01,+6.671795E+01
+1.604800E+01,+6.353846E+01
+1.605600E+01,+6.103846E+01
+1.606400E+01,+6.505128E+01
+1.607200E+01,+6.829487E+01
+1.608000E+01,+5.852564E+01
+1.608800E+01,+3.757692E+01
+1.609600E+01,+2.039744E+01
+1.610400E+01,+1.441026E+01
+1.611200E+01,+1.097436E+01
+1.612000E+01,+3.205128E-01
+1.612800E+01,-1.417949E+01
+1.613600E+01,-2.232051E+01
+1.614400E+01,-2.229487E+01
+1.615200E+01,-2.041026E+01
+1.616000E+01,-2.055128E+01
+1.616800E+01,-1.961538E+01
+1.617600E+01,-1.448718E+01
+1.618400E+01,-9.692308E+00
+1.619200E+01,-1.261538E+01
+1.620000E+01,-2.297436E+01
+1.620800E+01,-2.919231E+01
+1.621600E+01,-2.700000E+01
+1.622400E+01,-2.079487E+01
+1.623200E+01,-1.996154E+01
+1.624000E+01,-2.210256E+01
+1.624800E+01,-2.080769E+01
+1.625600E+01,-1.467949E+01
+1.626400E+01,-1.148718E+01
+1.627200E+01,-1.880769E+01
+1.628000E+01,-3.539744E+01
+1.628800E+01,-5.132051E+01
+1.629600E+01,-5.608974E+01
+1.630400E+01,-4.907692E+01
+1.631200E+01,-3.794872E+01
+1.632000E+01,-2.960256E+01
+1.632800E+01,-2.265385E+01
+1.633600E+01,-1.315385E+01
+1.634400E+01,-5.076923E+00
+1.635200E+01,-4.871795E+00
+1.636000E+01,-1.001282E+01
+1.636800E+01,-9.692308E+00
+1.637600E+01,+2.000000E+00
+1.638400E+01,+1.676923E+01
+1.639200E+01,+2.238462E+01
+1.640000E+01,+1.610256E+01
+1.640800E+01,+4.628205E+00
+1.641600E+01,-4.423077E+00
+1.642400E+01,-1.033333E+01
+1.643200E+01,-1.717949E+01
+1.644000E+01,-2.778205E+01
+1.644800E+01,-4.012821E+01
+1.645600E+01,-4.723077E+01
+1.646400E+01,-4.419231E+01
+1.647200E+01,-3.379487E+01
+1.648000E+01,-2.802564E+01
+1.648800E+01,-4.550000E+01
+1.649600E+01,-7.937179E+01
+1.650400E+01,-7.123077E+01
+1.651200E+01,+3.819231E+01
+1.652000E+01,+2.133590E+02
+1.652800E+01,+3.153205E+02
+1.653600E+01,+1.727436E+02
+1.654400E+01,-2.748718E+01
+1.655200E+01,-1.631538E+02
+1.656000E+01,-1.166282E+02
+1.656800E+01,-6.143590E+01
+1.657600E+01,-3.419231E+01
+1.658400E+01,-2.592308E+01
+1.659200E+01,-2.064103E+01
+1.660000E+01,-1.564103E+01
+1.660800E+01,-1.024359E+01
+1.661600E+01,-2.858974E+00
+1.662400E+01,+5.371795E+00
+1.663200E+01,+1.155128E+01
+1.664000E+01,+1.242308E+01
+1.664800E+01,+1.093590E+01
+1.665600E+01,+1.387179E+01
+1.666400E+01,+2.208974E+01
+1.667200E+01,+3.093590E+01
+1.668000E+01,+3.756410E+01
+1.668800E+01,+4.088462E+01
+1.669600E+01,+4.375641E+01
+1.670400E+01,+5.210256E+01
+1.671200E+01,+6.883333E+01
+1.672000E+01,+8.469231E+01
+1.672800E+01,+8.248718E+01
+1.673600E+01,+6.134615E+01
+1.674400E+01,+4.079487E+01
+1.675200E+01,+3.943590E+01
+1.676000E+01,+5.473077E+01
+1.676800E+01,+6.766667E+01
+1.677600E+01,+7.150000E+01
+1.678400E+01,+7.323077E+01
+1.679200E+01,+7.650000E+01
+1.680000E+01,+7.330769E+01
+1.680800E+01,+5.489744E+01
+1.681600E+01,+2.885897E+01
+1.682400E+01,+8.743590E+00
+1.683200E+01,-1.128205E+00
+1.684000E+01,-6.320513E+00
+1.684800E+01,-1.232051E+01
+1.685600E+01,-1.466667E+01
+1.686400E+01,-9.448718E+00
+1.687200E+01,-6.602564E+00
+1.688000E+01,-7.525641E+00
+1.688800E+01,-1.057692E+01
+1.689600E+01,-9.397436E+00
+1.690400E+01,-1.170513E+01
+1.691200E+01,-1.906410E+01
+1.692000E+01,-2.469231E+01
+1.692800E+01,-2.296154E+01
+1.693600E+01,-1.746154E+01
+1.694400E+01,-1.521795E+01
+1.695200E+01,-1.592308E+01
+1.696000E+01,-1.639744E+01
+1.696800E+01,-1.644872E+01
+1.697600E+01,-1.874359E+01
+1.698400E+01,-2.471795E+01
+1.699200E+01,-3.124359E+01
+1.700000E+01,-3.503846E+01
+1.700800E+01,-3.467949E+01
+1.701600E+01,-3.050000E+01
+1.702400E+01,-2.480769E+01
+1.703200E+01,-1.851282E+01
+1.704000E+01,-1.201282E+01
+1.704800E+01,-6.256410E+00
+1.705600E+01,-3.256410E+00
+1.706400E+01,-3.166667E+00
+1.707200E+01,-2.205128E+00
+1.708000E+01,+3.089744E+00
+1.708800E+01,+1.112821E+01
+1.709600E+01,+1.573077E+01
+1.710400E+01,+1.115385E+01
+1.711200E+01,-7.435897E-01
+1.712000E+01,-1.303846E+01
+1.712800E+01,-2.023077E+01
+1.713600E+01,-2.203846E+01
+1.714400E+01,-2.307692E+01
+1.715200E+01,-2.671795E+01
+1.716000E+01,-3.017949E+01
+1.716800E+01,-2.811538E+01
+1.717600E+01,-2.382051E+01
+1.718400E+01,-3.353846E+01
+1.719200E+01,-6.097436E+01
+1.720000E+01,+5.371795E+00
+1.720800E+01,+1.436538E+02
+1.721600E+01,+2.808205E+02
+1.722400E+01,+2.477692E+02
+1.723200E+01,+8.701282E+01
+1.724000E+01,-7.382051E+01
+1.724800E+01,-1.340000E+02
+1.725600E+01,-1.040385E+02
+1.726400E+01,-5.520513E+01
+1.727200E+01,-2.920513E+01
+1.728000E+01,-2.291026E+01
+1.728800E+01,-2.119231E+01
+1.729600E+01,-1.810256E+01
+1.730400E+01,-1.387179E+01
+1.731200E+01,-8.256410E+00
+1.732000E+01,-2.141026E+00
+1.732800E+01,+4.153846E+00
+1.733600E+01,+9.179487E+00
+1.734400E+01,+8.666667E+00
+1.735200E+01,+4.051282E+00
+1.736000E+01,+2.705128E+00
+1.736800E+01,+7.935897E+00
+1.737600E+01,+1.596154E+01
+1.738400E+01,+2.301282E+01
+1.739200E+01,+3.243590E+01
+1.740000E+01,+4.701282E+01
+1.740800E+01,+6.132051E+01
+1.741600E+01,+6.889744E+01
+1.742400E+01,+6.973077E+01
+1.743200E+01,+6.966667E+01
+1.744000E+01,+7.171795E+01
+1.744800E+01,+7.333333E+01
+1.745600E+01,+7.316667E+01
+1.746400E+01,+7.089744E+01
+1.747200E+01,+6.744872E+01
+1.748000E+01,+6.457692E+01
+1.748800E+01,+6.252564E+01
+1.749600E+01,+6.015385E+01
+1.750400E+01,+5.387179E+01
+1.751200E+01,+4.194872E+01
+1.752000E+01,+2.526923E+01
+1.752800E+01,+4.807692E+00
+1.753600E+01,-1.633333E+01
+1.754400E+01,-2.797436E+01
+1.755200E+01,-3.044872E+01
+1.756000E+01,-2.762821E+01
+1.756800E+01,-2.682051E+01
+1.757600E+01,-2.666667E+01
+1.758400E+01,-2.476923E+01
+1.759200E+01,-1.952564E+01
+1.760000E+01,-1.284615E+01
+1.760800E+01,-1.125641E+01
+1.761600E+01,-2.052564E+01
+1.762400E+01,-3.403846E+01
+1.763200E+01,-3.773077E+01
+1.764000E+01,-2.974359E+01
+1.764800E+01,-2.297436E+01
+1.765600E+01,-2.641026E+01
+1.766400E+01,-3.405128E+01
+1.767200E+01,-3.676923E+01
+1.768000E+01,-3.628205E+01
+1.768800E+01,-3.864103E+01
+1.769600E+01,-4.253846E+01
+1.770400E+01,-4.303846E+01
+1.771200E+01,-3.774359E+01
+1.772000E+01,-2.707692E+01
+1.772800E+01,-1.366667E+01
+1.773600E+01,-4.038462E+00
+1.774400E+01,-5.320513E+00
+1.775200E+01,-1.479487E+01
+1.776000E+01,-2.378205E+01
+1.776800E+01,-2.857692E+01
+1.777600E+01,-3.262821E+01
+1.778400E+01,-3.989744E+01
+1.779200E+01,-4.753846E+01
+1.780000E+01,-5.166667E+01
+1.780800E+01,-5.223077E+01
+1.781600E+01,-5.058974E+01
+1.782400E+01,-4.938462E+01
+1.783200E+01,-5.079487E+01
+1.784000E+01,-5.905128E+01
+1.784800E+01,-8.091026E+01
+1.785600E+01,-1.100000E+02
+1.786400E+01,-1.054872E+02
+1.787200E+01,+3.858974E+01
+1.788000E+01,+1.740128E+02
+1.788800E+01,+2.032692E+02
+1.789600E+01,+3.973077E+01
+1.790400E+01,-1.142564E+02
+1.791200E+01,-1.609615E+02
+1.792000E+01,-1.205128E+02
+1.792800E+01,-7.205128E+01
+1.793600E+01,-5.971795E+01
+1.794400E+01,-7.250000E+01
+1.795200E+01,-8.173077E+01
+1.796000E+01,-7.544872E+01
+1.796800E+01,-5.941026E+01
+1.797600E+01,-4.573077E+01
+1.798400E+01,-4.055128E+01
+1.799200E+01,-3.764103E+01
+1.800000E+01,-2.973077E+01
+1.800800E+01,-1.751282E+01
+1.801600E+01,-7.743590E+00
+1.802400E+01,-5.487179E+00
+1.803200E+01,-7.461538E+00
+1.804000E+01,-7.461538E+00
+1.804800E+01,-1.371795E+00
+1.805600E+01,+9.282051E+00
+1.806400E+01,+2.047436E+01
+1.807200E+01,+3.074359E+01
+1.808000E+01,+3.908974E+01
+1.808800E+01,+4.555128E+01
+1.809600E+01,+4.956410E+01
+1.810400E+01,+5.023077E+01
+1.811200E+01,+4.735897E+01
+1.812000E+01,+4.187179E+01
+1.812800E+01,+3.814103E+01
+1.813600E+01,+3.889744E+01
+1.814400E+01,+4.083333E+01
+1.815200E+01,+3.975641E+01
+1.816000E+01,+3.484615E+01
+1.816800E+01,+2.697436E+01
+1.817600E+01,+1.564103E+01
+1.818400E+01,+7.435897E-01
+1.819200E+01,-1.416667E+01
+1.820000E+01,-3.094872E+01
+1.820800E+01,-4.408974E+01
+1.821600E+01,-5.198718E+01
+1.822400E+01,-4.928205E+01
+1.823200E+01,-4.480769E+01
+1.824000E+01,-4.280769E+01
+1.824800E+01,-4.017949E+01
+1.825600E+01,-3.493590E+01
+1.826400E+01,-3.098718E+01
+1.827200E+01,-3.228205E+01
+1.828000E+01,-3.523077E+01
+1.828800E+01,-3.530769E+01
+1.829600E+01,-3.616667E+01
+1.830400E+01,-4.219231E+01
+1.831200E+01,-4.952564E+01
+1.832000E+01,-5.034615E+01
+1.832800E+01,-4.410256E+01
+1.833600E+01,-3.788462E+01
+1.834400E+01,-3.537179E+01
+1.835200E+01,-3.335897E+01
+1.836000E+01,-2.911538E+01
+1.836800E+01,-2.502564E+01
+1.837600E+01,-2.492308E+01
+1.838400E+01,-2.798718E+01
+1.839200E+01,-2.903846E+01
+1.840000E+01,-2.344872E+01
+1.840800E+01,-1.265385E+01
+1.841600E+01,-5.628205E+00
+1.842400E+01,-1.052564E+01
+1.843200E+01,-2.420513E+01
+1.844000E+01,-3.650000E+01
+1.844800E+01,-4.129487E+01
+1.845600E+01,-4.196154E+01
+1.846400E+01,-4.521795E+01
+1.847200E+01,-5.169231E+01
+1.848000E+01,-5.570513E+01
+1.848800E+01,-5.152564E+01
+1.849600E+01,-4.406410E+01
+1.850400E+01,-5.158974E+01
+1.851200E+01,-8.037179E+01
+1.852000E+01,-8.948718E+01
+1.852800E+01,-1.526923E+01
+1.853600E+01,+1.297051E+02
+1.854400E+01,+1.767692E+02
+1.855200E+01,+8.198718E+01
+1.856000E+01,-8.211538E+01
+1.856800E+01,-1.433590E+02
+1.857600E+01,-1.131538E+02
+1.858400E+01,-6.801282E+01
+1.859200E+01,-5.035897E+01
+1.860000E+01,-5.016667E+01
+1.860800E+01,-4.744872E+01
+1.861600E+01,-4.058974E+01
+1.862400E+01,-3.592308E+01
+1.863200E+01,-3.419231E+01
+1.864000E+01,-3.235897E+01
+1.864800E+01,-2.755128E+01
+1.865600E+01,-2.014103E+01
+1.866400E+01,-1.257692E+01
+1.867200E+01,-6.243590E+00
+1.868000E+01,-7.051282E-01
+1.868800E+01,+4.653846E+00
+1.869600E+01,+8.935897E+00
+1.870400E+01,+1.193590E+01
+1.871200E+01,+1.574359E+01
+1.872000E+01,+2.235897E+01
+1.872800E+01,+3.141026E+01
+1.873600E+01,+4.001282E+01
+1.874400E+01,+4.612821E+01
+1.875200E+01,+5.002564E+01
+1.876000E+01,+5.269231E+01
+1.876800E+01,+5.462821E+01
+1.877600E+01,+5.570513E+01
+1.878400E+01,+5.567949E+01
+1.879200E+01,+5.474359E+01
+1.880000E+01,+5.364103E+01
+1.880800E+01,+5.414103E+01
+1.881600E+01,+5.384615E+01
+1.882400E+01,+4.498718E+01
+1.883200E+01,+2.403846E+01
+1.884000E+01,-1.538462E-01
+1.884800E+01,-1.428205E+01
+1.885600E+01,-1.670513E+01
+1.886400E+01,-1.778205E+01
+1.887200E+01,-2.347436E+01
+1.888000E+01,-2.837179E+01
+1.888800E+01,-2.924359E+01
+1.889600E+01,-2.671795E+01
+1.890400E+01,-2.479487E+01
+1.891200E+01,-2.287179E+01
+1.892000E+01,-2.269231E+01
+1.892800E+01,-2.446154E+01
+1.893600E+01,-2.570513E+01
+1.894400E+01,-2.474359E+01
+1.895200E+01,-2.482051E+01
+1.896000E+01,-2.843590E+01
+1.896800E+01,-3.256410E+01
+1.897600E+01,-3.362821E+01
+1.898400E+01,-3.255128E+01
+1.899200E+01,-3.302564E+01
+1.900000E+01,-3.493590E+01
+1.900800E+01,-3.579487E+01
+1.901600E+01,-3.624359E+01
+1.902400E+01,-3.592308E+01
+1.903200E+01,-2.988462E+01
+1.904000E+01,-1.505128E+01
+1.904800E+01,+8.333333E-01
+1.905600E+01,+6.038462E+00
+1.906400E+01,+4.230769E-01
+1.907200E+01,-4.961538E+00
+1.908000E+01,-4.641026E+00
+1.908800E+01,-5.282051E+00
+1.909600E+01,-1.412821E+01
+1.910400E+01,-2.823077E+01
+1.911200E+01,-3.941026E+01
+1.912000E+01,-4.320513E+01
+1.912800E+01,-4.055128E+01
+1.913600E+01,-3.779487E+01
+1.914400E+01,-4.057692E+01
+1.915200E+01,-4.651282E+01
+1.916000E+01,-4.965385E+01
+1.916800E+01,-5.465385E+01
+1.917600E+01,-7.464103E+01
+1.918400E+01,-9.196154E+01
+1.919200E+01,-4.724359E+01
+1.920000E+01,+1.033462E+02
+1.920800E+01,+1.897051E+02
+1.921600E+01,+1.414744E+02
+1.922400E+01,-3.144872E+01
+1.923200E+01,-1.315897E+02
+1.924000E+01,-1.320897E+02
+1.924800E+01,-9.230769E+01
+1.925600E+01,-6.475641E+01
+1.926400E+01,-5.291026E+01
+1.927200E+01,-4.369231E+01
+1.928000E+01,-3.446154E+01
+1.928800E+01,-2.880769E+01
+1.929600E+01,-2.566667E+01
+1.930400E+01,-2.148718E+01
+1.931200E+01,-1.656410E+01
+1.932000E+01,-1.192308E+01
+1.932800E+01,-7.961538E+00
+1.933600E+01,-3.692308E+00
+1.934400E+01,+3.141026E+00
+1.935200E+01,+1.043590E+01
+1.936000E+01,+1.457692E+01
+1.936800E+01,+1.557692E+01
+1.937600E+01,+1.755128E+01
+1.938400E+01,+2.544872E+01
+1.939200E+01,+3.774359E+01
+1.940000E+01,+4.788462E+01
+1.940800E+01,+5.291026E+01
+1.941600E+01,+5.585897E+01
+1.942400E+01,+6.096154E+01
+1.943200E+01,+6.628205E+01
+1.944000E+01,+6.698718E+01
+1.944800E+01,+6.147436E+01
+1.945600E+01,+5.270513E+01
+1.946400E+01,+4.650000E+01
+1.947200E+01,+4.646154E+01
+1.948000E+01,+4.916667E+01
+1.948800E+01,+4.739744E+01
+1.949600E+01,+3.707692E+01
+1.950400E+01,+2.208974E+01
+1.951200E+01,+8.448718E+00
+1.952000E+01,-3.051282E+00
+1.952800E+01,-1.333333E+01
+1.953600E+01,-1.961538E+01
+1.954400E+01,-2.150000E+01
+1.955200E+01,-2.147436E+01
+1.956000E+01,-2.434615E+01
+1.956800E+01,-2.826923E+01
+1.957600E+01,-2.866667E+01
+1.958400E+01,-2.305128E+01
+1.959200E+01,-1.578205E+01
+1.960000E+01,-1.433333E+01
+1.960800E+01,-2.098718E+01
+1.961600E+01,-3.048718E+01
+1.962400E+01,-3.574359E+01
+1.963200E+01,-3.612821E+01
+1.964000E+01,-3.485897E+01
+1.964800E+01,-3.294872E+01
+1.965600E+01,-3.056410E+01
+1.966400E+01,-2.838462E+01
+1.967200E+01,-2.764103E+01
+1.968000E+01,-2.746154E+01
+1.968800E+01,-2.650000E+01
+1.969600E+01,-2.711538E+01
+1.970400E+01,-3.076923E+01
+1.971200E+01,-3.479487E+01
+1.972000E+01,-3.396154E+01
+1.972800E+01,-2.556410E+01
+1.973600E+01,-1.297436E+01
+1.974400E+01,-5.000000E-01
+1.975200E+01,+8.423077E+00
+1.976000E+01,+1.302564E+01
+1.976800E+01,+1.384615E+01
+1.977600E+01,+9.217949E+00
+1.978400E+01,-1.743590E+00
+1.979200E+01,-1.698718E+01
+1.980000E+01,-3.147436E+01
+1.980800E+01,-3.955128E+01
+1.981600E+01,-4.026923E+01
+1.982400E+01,-3.784615E+01
+1.983200E+01,-3.667949E+01
+1.984000E+01,-3.758974E+01
+1.984800E+01,-3.973077E+01
+1.985600E+01,-4.867949E+01
+1.986400E+01,-6.226923E+01
+1.987200E+01,-1.992308E+01
+1.988000E+01,+1.003462E+02
+1.988800E+01,+2.396795E+02
+1.989600E+01,+2.611923E+02
+1.990400E+01,+1.306410E+02
+1.991200E+01,-4.964103E+01
+1.992000E+01,-1.495256E+02
+1.992800E+01,-1.386410E+02
+1.993600E+01,-8.201282E+01
+1.994400E+01,-4.225641E+01
+1.995200E+01,-2.955128E+01
+1.996000E+01,-2.708974E+01
+1.996800E+01,-2.535897E+01
+1.997600E+01,-2.373077E+01
+1.998400E+01,-1.978205E+01
+1.999200E+01,-1.362821E+01
+2.000000E+01,-7.641026E+00
+2.000800E+01,-2.987179E+00
+2.001600E+01,+1.923077E-01
+2.002400E+01,+3.641026E+00
+2.003200E+01,+9.474359E+00
+2.004000E+01,+1.793590E+01
+2.004800E+01,+2.475641E+01
+2.005600E+01,+2.603846E+01
+2.006400E+01,+2.552564E+01
+2.007200E+01,+2.989744E+01
+2.008000E+01,+3.993590E+01
+2.008800E+01,+4.891026E+01
+2.009600E+01,+5.176923E+01
+2.010400E+01,+5.279487E+01
+2.011200E+01,+5.807692E+01
+2.012000E+01,+6.701282E+01
+2.012800E+01,+7.260256E+01
+2.013600E+01,+7.032051E+01
+2.014400E+01,+6.400000E+01
+2.015200E+01,+5.978205E+01
+2.016000E+01,+5.901282E+01
+2.016800E+01,+5.687179E+01
+2.017600E+01,+4.824359E+01
+2.018400E+01,+3.429487E+01
+2.019200E+01,+2.070513E+01
+2.020000E+01,+8.089744E+00
+2.020800E+01,+1.538462E-01
+2.021600E+01,-5.384615E+00
+2.022400E+01,-7.153846E+00
+2.023200E+01,-1.008974E+01
+2.024000E+01,-1.400000E+01
+2.024800E+01,-1.829487E+01
+2.025600E+01,-2.357692E+01
+2.026400E+01,-2.901282E+01
+2.027200E+01,-3.214103E+01
+2.028000E+01,-2.921795E+01
+2.028800E+01,-2.278205E+01
+2.029600E+01,-1.934615E+01
+2.030400E+01,-2.002564E+01
+2.031200E+01,-2.101282E+01
+2.032000E+01,-1.971795E+01
+2.032800E+01,-1.943590E+01
+2.033600E+01,-2.284615E+01
+2.034400E+01,-2.733333E+01
+2.035200E+01,-2.991026E+01
+2.036000E+01,-2.971795E+01
+2.036800E+01,-2.803846E+01
+2.037600E+01,-2.606410E+01
+2.038400E+01,-2.480769E+01
+2.039200E+01,-2.579487E+01
+2.040000E+01,-2.825641E+01
+2.040800E+01,-2.934615E+01
+2.041600E+01,-2.741026E+01
+2.042400E+01,-2.316667E+01
+2.043200E+01,-1.726923E+01
+2.044000E+01,-8.961538E+00
+2.044800E+01,+1.769231E+00
+2.045600E+01,+1.296154E+01
+2.046400E+01,+2.188462E+01
+2.047200E+01,+2.502564E+01
+2.048000E+01,+1.837179E+01
+2.048800E+01,+2.423077E+00
+2.049600E+01,-1.641026E+01
+2.050400E+01,-3.065385E+01
+2.051200E+01,-3.788462E+01
+2.052000E+01,-4.046154E+01
+2.052800E+01,-4.030769E+01
+2.053600E+01,-3.732051E+01
+2.054400E+01,-3.087179E+01
+2.055200E+01,-2.926923E+01
+2.056000E+01,-4.780769E+01
+2.056800E+01,-7.823077E+01
+2.057600E+01,-6.312821E+01
+2.058400E+01,+4.921795E+01
+2.059200E+01,+2.104872E+02
+2.060000E+01,+2.842821E+02
+2.060800E+01,+1.891667E+02
+2.061600E+01,-5.000000E-01
+2.062400E+01,-1.376410E+02
+2.063200E+01,-1.557308E+02
+2.064000E+01,-1.040256E+02
+2.064800E+01,-5.596154E+01
+2.065600E+01,-3.365385E+01
+2.066400E+01,-2.262821E+01
+2.067200E+01,-1.276923E+01
+2.068000E+01,-6.166667E+00
+2.068800E+01,-5.384615E+00
+2.069600E+01,-7.935897E+00
+2.070400E+01,-1.033333E+01
+2.071200E+01,-1.051282E+01
+2.072000E+01,-8.192308E+00
+2.072800E+01,-4.397436E+00
+2.073600E+01,+7.051282E-01
+2.074400E+01,+6.782051E+00
+2.075200E+01,+1.370513E+01
+2.076000E+01,+2.369231E+01
+2.076800E+01,+3.707692E+01
+2.077600E+01,+4.948718E+01
+2.078400E+01,+5.575641E+01
+2.079200E+01,+5.515385E+01
+2.080000E+01,+5.256410E+01
+2.080800E+01,+5.219231E+01
+2.081600E+01,+5.375641E+01
+2.082400E+01,+5.541026E+01
+2.083200E+01,+5.632051E+01
+2.084000E+01,+5.843590E+01
+2.084800E+01,+6.325641E+01
+2.085600E+01,+6.898718E+01
+2.086400E+01,+6.765385E+01
+2.087200E+01,+5.787179E+01
+2.088000E+01,+4.215385E+01
+2.088800E+01,+2.878205E+01
+2.089600E+01,+1.888462E+01
+2.090400E+01,+1.102564E+01
+2.091200E+01,+2.448718E+00
+2.092000E+01,-6.448718E+00
+2.092800E+01,-1.274359E+01
+2.093600E+01,-1.397436E+01
+2.094400E+01,-1.256410E+01
+2.095200E+01,-1.261538E+01
+2.096000E+01,-1.414103E+01
+2.096800E+01,-1.510256E+01
+2.097600E+01,-1.582051E+01
+2.098400E+01,-1.847436E+01
+2.099200E+01,-2.230769E+01
+2.100000E+01,-2.369231E+01
+2.100800E+01,-2.273077E+01
+2.101600E+01,-2.280769E+01
+2.102400E+01,-2.482051E+01
+2.103200E+01,-2.652564E+01
+2.104000E+01,-2.617949E+01
+2.104800E+01,-2.496154E+01
+2.105600E+01,-2.339744E+01
+2.106400E+01,-2.075641E+01
+2.107200E+01,-1.943590E+01
+2.108000E+01,-2.278205E+01
+2.108800E+01,-3.044872E+01
+2.109600E+01,-3.765385E+01
+2.110400E+01,-3.947436E+01
+2.111200E+01,-3.626923E+01
+2.112000E+01,-3.123077E+01
+2.112800E+01,-2.714103E+01
+2.113600E+01,-2.371795E+01
+2.114400E+01,-1.842308E+01
+2.115200E+01,-1.075641E+01
+2.116000E+01,-1.141026E+00
+2.116800E+01,+9.423077E+00
+2.117600E+01,+1.920513E+01
+2.118400E+01,+2.428205E+01
+2.119200E+01,+1.876923E+01
+2.120000E+01,-2.064103E+00
+2.120800E+01,-2.241026E+01
+2.121600E+01,-3.544872E+01
+2.122400E+01,-3.520513E+01
+2.123200E+01,-3.601282E+01
+2.124000E+01,-4.051282E+01
+2.124800E+01,-4.369231E+01
+2.125600E+01,-3.828205E+01
+2.126400E+01,-2.932051E+01
+2.127200E+01,-3.811538E+01
+2.128000E+01,-7.220513E+01
+2.128800E+01,-8.560256E+01
+2.129600E+01,-1.001282E+01
+2.130400E+01,+1.482308E+02
+2.131200E+01,+2.712692E+02
+2.132000E+01,+2.393077E+02
+2.132800E+01,+6.930769E+01
+2.133600E+01,-1.010897E+02
+2.134400E+01,-1.619359E+02
+2.135200E+01,-1.241026E+02
+2.136000E+01,-6.511538E+01
+2.136800E+01,-3.302564E+01
+2.137600E+01,-2.588462E+01
+2.138400E+01,-2.701282E+01
+2.139200E+01,-2.853846E+01
+2.140000E+01,-2.774359E+01
+2.140800E+01,-2.319231E+01
+2.141600E+01,-1.661538E+01
+2.142400E+01,-1.060256E+01
+2.143200E+01,-6.423077E+00
+2.144000E+01,-3.974359E+00
+2.144800E+01,-7.948718E-01
+2.145600E+01,+6.320513E+00
+2.146400E+01,+1.746154E+01
+2.147200E+01,+2.871795E+01
+2.148000E+01,+3.596154E+01
+2.148800E+01,+3.841026E+01
+2.149600E+01,+3.898718E+01
+2.150400E+01,+4.153846E+01
+2.151200E+01,+4.694872E+01
+2.152000E+01,+5.314103E+01
+2.152800E+01,+5.714103E+01
+2.153600E+01,+5.916667E+01
+2.154400E+01,+6.078205E+01
+2.155200E+01,+6.303846E+01
+2.156000E+01,+6.582051E+01
+2.156800E+01,+6.798718E+01
+2.157600E+01,+6.653846E+01
+2.158400E+01,+5.829487E+01
+2.159200E+01,+4.425641E+01
+2.160000E+01,+2.929487E+01
+2.160800E+01,+1.705128E+01
+2.161600E+01,+7.987179E+00
+2.162400E+01,+8.846154E-01
+2.163200E+01,-5.166667E+00
+2.164000E+01,-1.025641E+01
+2.164800E+01,-1.467949E+01
+2.165600E+01,-1.762821E+01
+2.166400E+01,-1.874359E+01
+2.167200E+01,-1.911538E+01
+2.168000E+01,-1.970513E+01
+2.168800E+01,-2.160256E+01
+2.169600E+01,-2.424359E+01
+2.170400E+01,-2.710256E+01
+2.171200E+01,-2.929487E+01
+2.172000E+01,-2.938462E+01
+2.172800E+01,-2.773077E+01
+2.173600E+01,-2.535897E+01
+2.174400E+01,-2.355128E+01
+2.175200E+01,-2.360256E+01
+2.176000E+01,-2.570513E+01
+2.176800E+01,-2.920513E+01
+2.177600E+01,-3.087179E+01
+2.178400E+01,-2.893590E+01
+2.179200E+01,-2.617949E+01
+2.180000E+01,-2.567949E+01
+2.180800E+01,-2.833333E+01
+2.181600E+01,-3.147436E+01
+2.182400E+01,-3.324359E+01
+2.183200E+01,-3.406410E+01
+2.184000E+01,-3.328205E+01
+2.184800E+01,-3.041026E+01
+2.185600E+01,-2.620513E+01
+2.186400E+01,-1.498718E+01
+2.187200E+01,+1.730769E+00
+2.188000E+01,+2.082051E+01
+2.188800E+01,+2.947436E+01
+2.189600E+01,+2.624359E+01
+2.190400E+01,+1.497436E+01
+2.191200E+01,+9.358974E-01
+2.192000E+01,-1.433333E+01
+2.192800E+01,-2.984615E+01
+2.193600E+01,-4.106410E+01
+2.194400E+01,-4.450000E+01
+2.195200E+01,-4.258974E+01
+2.196000E+01,-4.166667E+01
+2.196800E+01,-4.297436E+01
+2.197600E+01,-4.153846E+01
+2.198400E+01,-3.951282E+01
+2.199200E+01,-5.146154E+01
+2.200000E+01,-7.669231E+01
+2.200800E+01,-6.807692E+01
+2.201600E+01,+2.911538E+01
+2.202400E+01,+1.859744E+02
+2.203200E+01,+2.778590E+02
+2.204000E+01,+2.086026E+02
+2.204800E+01,+2.739744E+01
+2.205600E+01,-1.220128E+02
+2.206400E+01,-1.548077E+02
+2.207200E+01,-1.071410E+02
+2.208000E+01,-5.593590E+01
+2.208800E+01,-3.291026E+01
+2.209600E+01,-2.592308E+01
+2.210400E+01,-2.246154E+01
+2.211200E+01,-2.155128E+01
+2.212000E+01,-2.180769E+01
+2.212800E+01,-1.975641E+01
+2.213600E+01,-1.471795E+01
+2.214400E+01,-7.961538E+00
+2.215200E+01,-4.358974E-01
+2.216000E+01,+6.423077E+00
+2.216800E+01,+1.091026E+01
+2.217600E+01,+1.411538E+01
+2.218400E+01,+1.925641E+01
+2.219200E+01,+2.742308E+01
+2.220000E+01,+3.338462E+01
+2.220800E+01,+3.679487E+01
+2.221600E+01,+4.142308E+01
+2.222400E+01,+5.143590E+01
+2.223200E+01,+6.148718E+01
+2.224000E+01,+6.514103E+01
+2.224800E+01,+6.264103E+01
+2.225600E+01,+5.932051E+01
+2.226400E+01,+5.869231E+01
+2.227200E+01,+6.034615E+01
+2.228000E+01,+6.150000E+01
+2.228800E+01,+6.046154E+01
+2.229600E+01,+5.796154E+01
+2.230400E+01,+5.510256E+01
+2.231200E+01,+5.126923E+01
+2.232000E+01,+4.282051E+01
+2.232800E+01,+2.675641E+01
+2.233600E+01,+6.923077E+00
+2.234400E+01,-8.679487E+00
+2.235200E+01,-1.547436E+01
+2.236000E+01,-1.657692E+01
+2.236800E+01,-1.750000E+01
+2.237600E+01,-1.771795E+01
+2.238400E+01,-1.598718E+01
+2.239200E+01,-1.471795E+01
+2.240000E+01,-1.630769E+01
+2.240800E+01,-1.871795E+01
+2.241600E+01,-1.893590E+01
+2.242400E+01,-2.012821E+01
+2.243200E+01,-2.556410E+01
+2.244000E+01,-3.150000E+01
+2.244800E+01,-3.284615E+01
+2.245600E+01,-2.946154E+01
+2.246400E+01,-2.579487E+01
+2.247200E+01,-2.367949E+01
+2.248000E+01,-2.267949E+01
+2.248800E+01,-2.451282E+01
+2.249600E+01,-2.915385E+01
+2.250400E+01,-3.326923E+01
+2.251200E+01,-3.374359E+01
+2.252000E+01,-3.197436E+01
+2.252800E+01,-3.169231E+01
+2.253600E+01,-2.985897E+01
+2.254400E+01,-2.834615E+01
+2.255200E+01,-2.701282E+01
+2.256000E+01,-2.811538E+01
+2.256800E+01,-2.601282E+01
+2.257600E+01,-1.775641E+01
+2.258400E+01,-5.461538E+00
+2.259200E+01,+7.512821E+00
+2.260000E+01,+1.820513E+01
+2.260800E+01,+2.424359E+01
+2.261600E+01,+2.198718E+01
+2.262400E+01,+1.007692E+01
+2.263200E+01,-6.871795E+00
+2.264000E+01,-2.338462E+01
+2.264800E+01,-3.662821E+01
+2.265600E+01,-4.510256E+01
+2.266400E+01,-4.829487E+01
+2.267200E+01,-4.738462E+01
+2.268000E+01,-4.438462E+01
+2.268800E+01,-3.870513E+01
+2.269600E+01,-3.084615E+01
+2.270400E+01,-3.333333E+01
+2.271200E+01,-6.053846E+01
+2.272000E+01,-8.997436E+01
+2.272800E+01,-5.553846E+01
+2.273600E+01,+7.802564E+01
+2.274400E+01,+2.341026E+02
+2.275200E+01,+2.735256E+02
+2.276000E+01,+1.462179E+02
+2.276800E+01,-4.570513E+01
+2.277600E+01,-1.594359E+02
+2.278400E+01,-1.547821E+02
+2.279200E+01,-9.715385E+01
+2.280000E+01,-5.496154E+01
+2.280800E+01,-4.126923E+01
+2.281600E+01,-3.691026E+01
+2.282400E+01,-2.938462E+01
+2.283200E+01,-1.897436E+01
+2.284000E+01,-1.074359E+01
+2.284800E+01,-9.294872E+00
+2.285600E+01,-1.201282E+01
+2.286400E+01,-7.602564E+00
+2.287200E+01,-1.282051E-01
+2.288000E+01,+6.897436E+00
+2.288800E+01,+9.474359E+00
+2.289600E+01,+1.533333E+01
+2.290400E+01,+2.361538E+01
+2.291200E+01,+3.010256E+01
+2.292000E+01,+3.361538E+01
+2.292800E+01,+3.734615E+01
+2.293600E+01,+4.330769E+01
+2.294400E+01,+5.033333E+01
+2.295200E+01,+5.564103E+01
+2.296000E+01,+5.742308E+01
+2.296800E+01,+5.669231E+01
+2.297600E+01,+5.550000E+01
+2.298400E+01,+5.573077E+01
+2.299200E+01,+5.752564E+01
+2.300000E+01,+5.879487E+01
+2.300800E+01,+5.700000E+01
+2.301600E+01,+5.174359E+01
+2.302400E+01,+4.398718E+01
+2.302400E+01,+3.833333E+01
+2.303200E+01,+3.093590E+01
+2.304000E+01,+2.189744E+01
+2.304800E+01,+9.961538E+00
+2.305600E+01,+1.551282E+00
+2.306400E+01,-4.166667E+00
+2.307200E+01,-1.103846E+01
+2.308000E+01,-1.951282E+01
+2.308800E+01,-2.493590E+01
+2.309600E+01,-2.424359E+01
+2.310400E+01,-2.133333E+01
+2.311200E+01,-2.092308E+01
+2.312000E+01,-2.170513E+01
+2.312800E+01,-2.092308E+01
+2.313600E+01,-1.958974E+01
+2.314400E+01,-2.191026E+01
+2.315200E+01,-2.760256E+01
+2.316000E+01,-3.175641E+01
+2.316800E+01,-3.215385E+01
+2.317600E+01,-3.028205E+01
+2.318400E+01,-2.920513E+01
+2.319200E+01,-2.951282E+01
+2.320000E+01,-3.119231E+01
+2.320800E+01,-3.434615E+01
+2.321600E+01,-3.616667E+01
+2.322400E+01,-3.411538E+01
+2.323200E+01,-2.960256E+01
+2.324000E+01,-3.030769E+01
+2.324800E+01,-3.846154E+01
+2.325600E+01,-4.641026E+01
+2.326400E+01,-4.555128E+01
+2.327200E+01,-3.644872E+01
+2.328000E+01,-2.733333E+01
+2.328800E+01,-2.161538E+01
+2.329600E+01,-1.575641E+01
+2.330400E+01,-5.974359E+00
+2.331200E+01,+7.012821E+00
+2.332000E+01,+1.824359E+01
+2.332800E+01,+2.226923E+01
+2.333600E+01,+1.561538E+01
+2.334400E+01,-9.230769E-01
+2.335200E+01,-2.020513E+01
+2.336000E+01,-3.483333E+01
+2.336800E+01,-4.252564E+01
+2.337600E+01,-4.475641E+01
+2.338400E+01,-4.447436E+01
+2.339200E+01,-4.385897E+01
+2.340000E+01,-4.352564E+01
+2.340800E+01,-4.183333E+01
+2.341600E+01,-4.003846E+01
+2.342400E+01,-5.171795E+01
+2.343200E+01,-8.061538E+01
+2.344000E+01,-8.473077E+01
+2.344800E+01,-2.153846E+00
+2.345600E+01,+1.571667E+02
+2.346400E+01,+2.741667E+02
+2.347200E+01,+2.324103E+02
+2.348000E+01,+5.628205E+01
+2.348800E+01,-1.120641E+02
+2.349600E+01,-1.655000E+02
+2.350400E+01,-1.237949E+02
+2.351200E+01,-6.879487E+01
+2.352000E+01,-4.400000E+01
+2.352800E+01,-4.010256E+01
+2.353600E+01,-3.626923E+01
+2.354400E+01,-2.915385E+01
+2.355200E+01,-2.225641E+01
+2.356000E+01,-1.738462E+01
+2.356800E+01,-1.316667E+01
+2.357600E+01,-7.705128E+00
+2.358400E+01,-1.192308E+00
+2.359200E+01,+5.217949E+00
+2.360000E+01,+9.974359E+00
+2.360800E+01,+1.337179E+01
+2.361600E+01,+1.652564E+01
+2.362400E+01,+2.182051E+01
+2.363200E+01,+3.078205E+01
+2.364000E+01,+4.069231E+01
+2.364800E+01,+4.751282E+01
+2.365600E+01,+5.042308E+01
+2.366400E+01,+5.243590E+01
+2.367200E+01,+5.583333E+01
+2.368000E+01,+5.837179E+01
+2.368800E+01,+5.807692E+01
+2.369600E+01,+5.630769E+01
+2.370400E+01,+5.603846E+01
+2.371200E+01,+5.837179E+01
+2.372000E+01,+6.058974E+01
+2.372800E+01,+5.969231E+01
+2.373600E+01,+5.423077E+01
+2.374400E+01,+4.456410E+01
+2.375200E+01,+3.308974E+01
+2.376000E+01,+2.173077E+01
+2.376800E+01,+1.161538E+01
+2.377600E+01,+2.923077E+00
+2.378400E+01,-3.961538E+00
+2.379200E+01,-8.128205E+00
+2.380000E+01,-1.042308E+01
+2.380800E+01,-1.198718E+01
+2.381600E+01,-1.275641E+01
+2.382400E+01,-1.215385E+01
+2.383200E+01,-1.084615E+01
+2.384000E+01,-1.188462E+01
+2.384800E+01,-1.673077E+01
+2.385600E+01,-2.242308E+01
+2.386400E+01,-2.360256E+01
+2.387200E+01,-2.052564E+01
+2.388000E+01,-1.783333E+01
+2.388800E+01,-2.020513E+01
+2.389600E+01,-2.537179E+01
+2.390400E+01,-2.935897E+01
+2.391200E+01,-2.955128E+01
+2.392000E+01,-2.664103E+01
+2.392800E+01,-2.342308E+01
+2.393600E+01,-2.258974E+01
+2.394400E+01,-2.411538E+01
+2.395200E+01,-2.679487E+01
+2.396000E+01,-2.901282E+01
+2.396800E+01,-2.971795E+01
+2.397600E+01,-2.805128E+01
+2.398400E+01,-2.252564E+01
+2.399200E+01,-1.226923E+01
+2.400000E+01,+1.128205E+00
+2.400800E+01,+1.332051E+01
+2.401600E+01,+1.946154E+01
+2.402400E+01,+1.734615E+01
+2.403200E+01,+8.397436E+00
+2.404000E+01,-3.551282E+00
+2.404800E+01,-1.428205E+01
+2.405600E+01,-2.171795E+01
+2.406400E+01,-2.673077E+01
+2.407200E+01,-3.098718E+01
+2.408000E+01,-3.606410E+01
+2.408800E+01,-4.102564E+01
+2.409600E+01,-4.160256E+01
+2.410400E+01,-3.562821E+01
+2.411200E+01,-3.174359E+01
+2.412000E+01,-4.778205E+01
+2.412800E+01,-7.814103E+01
+2.413600E+01,-6.842308E+01
+2.414400E+01,+3.560256E+01
+2.415200E+01,+1.986410E+02
+2.416000E+01,+2.925897E+02
+2.416800E+01,+2.253205E+02
+2.417600E+01,+4.832051E+01
+2.418400E+01,-1.014103E+02
+2.419200E+01,-1.435128E+02
+2.420000E+01,-1.039615E+02
+2.420800E+01,-5.585897E+01
+2.421600E+01,-2.952564E+01
+2.422400E+01,-2.391026E+01
+2.423200E+01,-2.084615E+01
+2.424000E+01,-1.834615E+01
+2.424800E+01,-1.410256E+01
+2.425600E+01,-8.910256E+00
+2.426400E+01,-3.102564E+00
+2.427200E+01,+1.858974E+00
+2.428000E+01,+4.500000E+00
+2.428800E+01,+6.089744E+00
+2.429600E+01,+9.589744E+00
+2.430400E+01,+1.729487E+01
+2.431200E+01,+2.716667E+01
+2.432000E+01,+3.619231E+01
+2.432800E+01,+4.403846E+01
+2.433600E+01,+5.103846E+01
+2.434400E+01,+5.632051E+01
+2.434400E+01,+5.885897E+01
+2.435200E+01,+5.858974E+01
+2.436000E+01,+5.802564E+01
+2.436800E+01,+5.901282E+01
+2.437600E+01,+6.192308E+01
+2.438400E+01,+6.525641E+01
+2.439200E+01,+6.769231E+01
+2.440000E+01,+6.903846E+01
+2.440800E+01,+6.932051E+01
+2.441600E+01,+6.730769E+01
+2.442400E+01,+6.271795E+01
+2.443200E+01,+5.541026E+01
+2.444000E+01,+4.465385E+01
+2.444800E+01,+3.144872E+01
+2.445600E+01,+1.810256E+01
+2.446400E+01,+6.576923E+00
+2.447200E+01,-2.961538E+00
+2.448000E+01,-1.030769E+01
+2.448800E+01,-1.423077E+01
+2.449600E+01,-1.578205E+01
+2.450400E+01,-1.758974E+01
+2.451200E+01,-2.098718E+01
+2.452000E+01,-2.423077E+01
+2.452800E+01,-2.466667E+01
+2.453600E+01,-2.325641E+01
+2.454400E+01,-2.016667E+01
+2.455200E+01,-1.752564E+01
+2.456000E+01,-1.648718E+01
+2.456800E+01,-1.893590E+01
+2.457600E+01,-2.357692E+01
+2.458400E+01,-2.694872E+01
+2.459200E+01,-2.829487E+01
+2.460000E+01,-2.980769E+01
+2.460800E+01,-3.205128E+01
+2.461600E+01,-3.266667E+01
+2.462400E+01,-3.014103E+01
+2.463200E+01,-2.800000E+01
+2.464000E+01,-2.930769E+01
+2.464800E+01,-2.988462E+01
+2.465600E+01,-2.323077E+01
+2.466400E+01,-9.705128E+00
+2.467200E+01,+3.320513E+00
+2.468000E+01,+9.858974E+00
+2.468800E+01,+9.384615E+00
+2.469600E+01,+3.153846E+00
+2.470400E+01,-6.525641E+00
+2.471200E+01,-1.662821E+01
+2.472000E+01,-2.553846E+01
+2.472800E+01,-3.408974E+01
+2.473600E+01,-4.285897E+01
+2.474400E+01,-4.998718E+01
+2.475200E+01,-5.252564E+01
+2.476000E+01,-4.875641E+01
+2.476800E+01,-3.944872E+01
+2.477600E+01,-3.446154E+01
+2.478400E+01,-5.030769E+01
+2.479200E+01,-7.575641E+01
+2.480000E+01,-5.346154E+01
+2.480800E+01,+6.164103E+01
+2.481600E+01,+2.162308E+02
+2.482400E+01,+2.790641E+02
+2.483200E+01,+1.832051E+02
+2.484000E+01,+6.730769E+00
+2.484800E+01,-1.144103E+02
+2.485600E+01,-1.276667E+02
+2.486400E+01,-8.558974E+01
+2.487200E+01,-5.112821E+01
+2.488000E+01,-4.105128E+01
+2.488800E+01,-3.882051E+01
+2.489600E+01,-3.437179E+01
+2.490400E+01,-2.662821E+01
+2.491200E+01,-1.698718E+01
+2.492000E+01,-8.871795E+00
+2.492800E+01,-4.833333E+00
+2.493600E+01,-4.615385E+00
+2.494400E+01,-3.615385E+00
+2.495200E+01,+2.076923E+00
+2.496000E+01,+1.115385E+01
+2.496800E+01,+1.866667E+01
+2.497600E+01,+2.243590E+01
+2.498400E+01,+2.591026E+01
+2.499200E+01,+3.207692E+01
+2.500000E+01,+4.046154E+01
+2.500800E+01,+4.815385E+01
+2.501600E+01,+5.302564E+01
+2.502400E+01,+5.521795E+01
+2.503200E+01,+5.588462E+01
+2.504000E+01,+5.679487E+01
+2.504800E+01,+5.853846E+01
+2.505600E+01,+5.960256E+01
+2.506400E+01,+5.900000E+01
+2.507200E+01,+5.723077E+01
+2.508000E+01,+5.614103E+01
+2.508800E+01,+5.516667E+01
+2.509600E+01,+4.967949E+01
+2.510400E+01,+3.593590E+01
+2.511200E+01,+1.656410E+01
+2.512000E+01,-1.025641E+00
+2.512800E+01,-1.170513E+01
+2.513600E+01,-1.802564E+01
+2.514400E+01,-2.446154E+01
+2.515200E+01,-3.003846E+01
+2.516000E+01,-3.087179E+01
+2.516800E+01,-2.779487E+01
+2.517600E+01,-2.606410E+01
+2.518400E+01,-2.688462E+01
+2.519200E+01,-2.550000E+01
+2.520000E+01,-2.520513E+01
+2.520800E+01,-2.966667E+01
+2.521600E+01,-3.782051E+01
+2.522400E+01,-4.008974E+01
+2.523200E+01,-3.652564E+01
+2.524000E+01,-3.462821E+01
+2.524800E+01,-3.684615E+01
+2.525600E+01,-3.907692E+01
+2.526400E+01,-3.800000E+01
+2.527200E+01,-3.571795E+01
+2.528000E+01,-3.376923E+01
+2.528800E+01,-3.100000E+01
+2.529600E+01,-2.580769E+01
+2.530400E+01,-1.764103E+01
+2.531200E+01,-7.948718E+00
+2.532000E+01,+1.000000E+00
+2.532800E+01,+5.794872E+00
+2.533600E+01,+2.987179E+00
+2.534400E+01,-8.076923E+00
+2.535200E+01,-2.460256E+01
+2.536000E+01,-4.080769E+01
+2.536800E+01,-5.143590E+01
+2.537600E+01,-5.529487E+01
+2.538400E+01,-5.400000E+01
+2.539200E+01,-5.048718E+01
+2.540000E+01,-4.523077E+01
+2.540800E+01,-3.847436E+01
+2.541600E+01,-3.541026E+01
+2.542400E+01,-4.729487E+01
+2.543200E+01,-7.634615E+01
+2.544000E+01,-8.675641E+01
+2.544800E+01,-2.093590E+01
+2.545600E+01,+1.229872E+02
+2.546400E+01,+2.486154E+02
+2.547200E+01,+2.400641E+02
+2.548000E+01,+9.434615E+01
+2.548800E+01,-7.066667E+01
+2.549600E+01,-1.447821E+02
+2.550400E+01,-1.248462E+02
+2.551200E+01,-7.919231E+01
+2.552000E+01,-5.289744E+01
+2.552800E+01,-4.294872E+01
+2.553600E+01,-3.615385E+01
+2.554400E+01,-2.765385E+01
+2.555200E+01,-2.316667E+01
+2.556000E+01,-2.202564E+01
+2.556800E+01,-2.466667E+01
+2.557600E+01,-2.538462E+01
+2.558400E+01,-1.996154E+01
+2.559200E+01,-1.106410E+01
+2.560000E+01,-3.717949E+00
+2.560800E+01,+1.743590E+00
+2.561600E+01,+8.012821E+00
+2.562400E+01,+1.670513E+01
+2.563200E+01,+2.734615E+01
+2.564000E+01,+3.885897E+01
+2.564800E+01,+4.825641E+01
+2.565600E+01,+5.094872E+01
+2.566400E+01,+4.823077E+01
+2.567200E+01,+4.629487E+01
+2.568000E+01,+4.814103E+01
+2.568800E+01,+5.015385E+01
+2.569600E+01,+4.867949E+01
+2.570400E+01,+4.676923E+01
+2.571200E+01,+4.800000E+01
+2.572000E+01,+5.096154E+01
+2.572800E+01,+5.117949E+01
+2.573600E+01,+4.605128E+01
+2.574400E+01,+3.725641E+01
+2.575200E+01,+2.551282E+01
+2.576000E+01,+1.180769E+01
+2.576800E+01,-1.769231E+00
+2.577600E+01,-1.366667E+01
+2.578400E+01,-2.219231E+01
+2.579200E+01,-2.657692E+01
+2.580000E+01,-2.729487E+01
+2.580800E+01,-2.653846E+01
+2.581600E+01,-2.758974E+01
+2.582400E+01,-3.048718E+01
+2.583200E+01,-3.244872E+01
+2.584000E+01,-3.157692E+01
+2.584800E+01,-2.934615E+01
+2.585600E+01,-2.858974E+01
+2.586400E+01,-2.832051E+01
+2.587200E+01,-2.694872E+01
+2.588000E+01,-2.425641E+01
+2.588800E+01,-2.273077E+01
+2.589600E+01,-2.241026E+01
+2.590400E+01,-2.347436E+01
+2.591200E+01,-2.685897E+01
+2.592000E+01,-3.196154E+01
+2.592800E+01,-3.619231E+01
+2.593600E+01,-3.723077E+01
+2.594400E+01,-3.373077E+01
+2.595200E+01,-2.556410E+01
+2.596000E+01,-1.346154E+01
+2.596800E+01,-1.243590E+00
+2.597600E+01,+6.128205E+00
+2.598400E+01,+6.320513E+00
+2.599200E+01,+3.076923E-01
+2.600000E+01,-9.871795E+00
+2.600800E+01,-2.284615E+01
+2.601600E+01,-3.673077E+01
+2.602400E+01,-4.669231E+01
+2.603200E+01,-4.953846E+01
+2.604000E+01,-4.800000E+01
+2.604800E+01,-4.616667E+01
+2.605600E+01,-4.388462E+01
+2.606400E+01,-3.988462E+01
+2.607200E+01,-4.358974E+01
+2.608000E+01,-6.642308E+01
+2.608800E+01,-8.423077E+01
+2.609600E+01,-3.619231E+01
+2.610400E+01,+1.011282E+02
+2.611200E+01,+2.465897E+02
+2.612000E+01,+2.722051E+02
+2.612800E+01,+1.450641E+02
+2.613600E+01,-3.221795E+01
+2.614400E+01,-1.340513E+02
+2.615200E+01,-1.319359E+02
+2.616000E+01,-8.612821E+01
+2.616800E+01,-5.332051E+01
+2.617600E+01,-4.261538E+01
+2.618400E+01,-3.942308E+01
+2.619200E+01,-3.546154E+01
+2.620000E+01,-2.823077E+01
+2.620800E+01,-2.062821E+01
+2.621600E+01,-1.366667E+01
+2.622400E+01,-1.042308E+01
+2.623200E+01,-7.282051E+00
+2.624000E+01,-3.474359E+00
+2.624800E+01,+3.333333E-01
+2.625600E+01,+4.474359E+00
+2.626400E+01,+1.048718E+01
+2.627200E+01,+1.856410E+01
+2.628000E+01,+2.723077E+01
+2.628800E+01,+3.391026E+01
+2.629600E+01,+3.884615E+01
+2.630400E+01,+4.401282E+01
+2.631200E+01,+4.983333E+01
+2.632000E+01,+5.530769E+01
+2.632800E+01,+5.742308E+01
+2.633600E+01,+5.583333E+01
+2.634400E+01,+5.366667E+01
+2.635200E+01,+5.316667E+01
+2.636000E+01,+5.325641E+01
+2.636800E+01,+5.100000E+01
+2.637600E+01,+4.685897E+01
+2.638400E+01,+4.293590E+01
+2.639200E+01,+3.735897E+01
+2.640000E+01,+2.723077E+01
+2.640800E+01,+1.248718E+01
+2.641600E+01,-2.756410E+00
+2.642400E+01,-1.447436E+01
+2.643200E+01,-2.157692E+01
+2.644000E+01,-2.412821E+01
+2.644800E+01,-2.383333E+01
+2.645600E+01,-2.278205E+01
+2.646400E+01,-2.185897E+01
+2.647200E+01,-2.123077E+01
+2.648000E+01,-2.085897E+01
+2.648800E+01,-2.194872E+01
+2.649600E+01,-2.403846E+01
+2.650400E+01,-2.462821E+01
+2.651200E+01,-2.370513E+01
+2.652000E+01,-2.403846E+01
+2.652800E+01,-2.430769E+01
+2.653600E+01,-2.352564E+01
+2.654400E+01,-2.285897E+01
+2.655200E+01,-2.769231E+01
+2.656000E+01,-3.588462E+01
+2.656800E+01,-4.000000E+01
+2.657600E+01,-3.720513E+01
+2.658400E+01,-3.165385E+01
+2.659200E+01,-2.824359E+01
+2.660000E+01,-2.602564E+01
+2.660800E+01,-2.153846E+01
+2.661600E+01,-1.258974E+01
+2.662400E+01,+3.846154E-02
+2.663200E+01,+1.171795E+01
+2.664000E+01,+1.708974E+01
+2.664800E+01,+1.306410E+01
+2.665600E+01,+1.833333E+00
+2.666400E+01,-1.142308E+01
+2.667200E+01,-2.411538E+01
+2.668000E+01,-3.546154E+01
+2.668800E+01,-4.500000E+01
+2.669600E+01,-4.996154E+01
+2.670400E+01,-4.915385E+01
+2.671200E+01,-4.505128E+01
+2.672000E+01,-3.932051E+01
+2.672800E+01,-3.451282E+01
+2.673600E+01,-3.787179E+01
+2.674400E+01,-6.035897E+01
+2.675200E+01,-8.847436E+01
+2.676000E+01,-6.570513E+01
+2.676800E+01,+5.073077E+01
+2.677600E+01,+2.100513E+02
+2.678400E+01,+2.816538E+02
+2.679200E+01,+1.894487E+02
+2.680000E+01,+4.974359E+00
+2.680800E+01,-1.300769E+02
+2.681600E+01,-1.497179E+02
+2.682400E+01,-1.021410E+02
+2.683200E+01,-6.019231E+01
+2.684000E+01,-4.405128E+01
+2.684800E+01,-3.725641E+01
+2.685600E+01,-2.930769E+01
+2.686400E+01,-2.521795E+01
+2.687200E+01,-2.429487E+01
+2.688000E+01,-2.162821E+01
+2.688800E+01,-1.566667E+01
+2.689600E+01,-9.410256E+00
+2.690400E+01,-5.141026E+00
+2.691200E+01,-1.500000E+00
+2.692000E+01,+3.730769E+00
+2.692800E+01,+1.116667E+01
+2.693600E+01,+2.033333E+01
+2.694400E+01,+2.941026E+01
+2.695200E+01,+3.724359E+01
+2.696000E+01,+4.314103E+01
+2.696800E+01,+4.692308E+01
+2.697600E+01,+5.029487E+01
+2.698400E+01,+5.350000E+01
+2.699200E+01,+5.484615E+01
+2.700000E+01,+5.334615E+01
+2.700800E+01,+5.067949E+01
+2.701600E+01,+5.096154E+01
+2.702400E+01,+5.435897E+01
+2.703200E+01,+5.743590E+01
+2.704000E+01,+5.705128E+01
+2.704800E+01,+5.217949E+01
+2.705600E+01,+4.452564E+01
+2.706400E+01,+3.541026E+01
+2.707200E+01,+2.500000E+01
+2.708000E+01,+1.287179E+01
+2.708800E+01,-6.538462E-01
+2.709600E+01,-1.215385E+01
+2.710400E+01,-1.919231E+01
+2.711200E+01,-2.348718E+01
+2.712000E+01,-2.648718E+01
+2.712800E+01,-2.671795E+01
+2.713600E+01,-2.229487E+01
+2.714400E+01,-1.744872E+01
+2.715200E+01,-1.907692E+01
+2.716000E+01,-2.547436E+01
+2.716800E+01,-2.832051E+01
+2.717600E+01,-2.400000E+01
+2.718400E+01,-1.910256E+01
+2.719200E+01,-2.248718E+01
+2.720000E+01,-2.817949E+01
+2.720800E+01,-3.114103E+01
+2.721600E+01,-2.764103E+01
+2.722400E+01,-2.419231E+01
+2.723200E+01,-2.173077E+01
+2.724000E+01,-2.189744E+01
+2.724800E+01,-2.524359E+01
+2.725600E+01,-2.857692E+01
+2.726400E+01,-2.830769E+01
+2.727200E+01,-2.516667E+01
+2.728000E+01,-2.432051E+01
+2.728800E+01,-2.839744E+01
+2.729600E+01,-3.128205E+01
+2.730400E+01,-2.532051E+01
+2.731200E+01,-9.153846E+00
+2.732000E+01,+9.128205E+00
+2.732800E+01,+1.974359E+01
+2.733600E+01,+2.050000E+01
+2.734400E+01,+1.420513E+01
+2.735200E+01,+3.589744E+00
+2.736000E+01,-1.001282E+01
+2.736800E+01,-2.420513E+01
+2.737600E+01,-3.489744E+01
+2.738400E+01,-4.061538E+01
+2.739200E+01,-4.269231E+01
+2.740000E+01,-4.411538E+01
+2.740800E+01,-4.458974E+01
+2.741600E+01,-3.989744E+01
+2.742400E+01,-3.210256E+01
+2.743200E+01,-3.629487E+01
+2.744000E+01,-6.280769E+01
+2.744800E+01,-7.832051E+01
+2.745600E+01,-1.846154E+01
+2.746400E+01,+1.268333E+02
+2.747200E+01,+2.599359E+02
+2.748000E+01,+2.566282E+02
+2.748800E+01,+1.067821E+02
+2.749600E+01,-6.883333E+01
+2.750400E+01,-1.500385E+02
+2.751200E+01,-1.281026E+02
+2.752000E+01,-7.479487E+01
+2.752800E+01,-4.261538E+01
+2.753600E+01,-3.252564E+01
+2.754400E+01,-2.682051E+01
+2.755200E+01,-2.094872E+01
+2.756000E+01,-1.689744E+01
+2.756800E+01,-1.344872E+01
+2.757600E+01,-9.448718E+00
+2.758400E+01,-5.448718E+00
+2.759200E+01,-2.410256E+00
+2.760000E+01,+6.410256E-02
+2.760800E+01,+3.871795E+00
+2.761600E+01,+1.014103E+01
+2.762400E+01,+1.810256E+01
+2.763200E+01,+2.657692E+01
+2.764000E+01,+3.465385E+01
+2.764800E+01,+4.196154E+01
+2.765600E+01,+4.808974E+01
+2.766400E+01,+5.166667E+01
+2.767200E+01,+5.269231E+01
+2.768000E+01,+5.241026E+01
+2.768800E+01,+5.226923E+01
+2.769600E+01,+5.357692E+01
+2.770400E+01,+5.573077E+01
+2.771200E+01,+5.735897E+01
+2.772000E+01,+5.756410E+01
+2.772800E+01,+5.670513E+01
+2.773600E+01,+5.656410E+01
+2.774400E+01,+5.542308E+01
+2.775200E+01,+4.925641E+01
+2.776000E+01,+3.615385E+01
+2.776800E+01,+1.901282E+01
+2.777600E+01,+3.666667E+00
+2.778400E+01,-6.782051E+00
+2.779200E+01,-1.265385E+01
+2.780000E+01,-1.598718E+01
+2.780800E+01,-1.874359E+01
+2.781600E+01,-2.050000E+01
+2.782400E+01,-2.093590E+01
+2.783200E+01,-2.075641E+01
+2.784000E+01,-2.094872E+01
+2.784800E+01,-2.143590E+01
+2.785600E+01,-2.206410E+01
+2.786400E+01,-2.617949E+01
+2.787200E+01,-2.947436E+01
+2.788000E+01,-3.001282E+01
+2.788800E+01,-2.694872E+01
+2.789600E+01,-2.656410E+01
+2.790400E+01,-2.903846E+01
+2.791200E+01,-3.024359E+01
+2.792000E+01,-2.837179E+01
+2.792800E+01,-2.557692E+01
+2.793600E+01,-2.425641E+01
+2.794400E+01,-2.548718E+01
+2.795200E+01,-2.801282E+01
+2.796000E+01,-2.988462E+01
+2.796800E+01,-3.008974E+01
+2.797600E+01,-2.997436E+01
+2.798400E+01,-3.224359E+01
+2.799200E+01,-3.611538E+01
+2.800000E+01,-3.826923E+01
+2.800800E+01,-3.556410E+01
+2.801600E+01,-2.711538E+01
+2.802400E+01,-1.526923E+01
+2.803200E+01,-2.487179E+00
+2.804000E+01,+1.001282E+01
+2.804800E+01,+2.084615E+01
+2.805600E+01,+2.615385E+01
+2.806400E+01,+2.056410E+01
+2.807200E+01,+4.756410E+00
+2.808000E+01,-1.407692E+01
+2.808800E+01,-2.887179E+01
+2.809600E+01,-3.783333E+01
+2.810400E+01,-4.196154E+01
+2.811200E+01,-4.108974E+01
+2.812000E+01,-3.775641E+01
+2.812800E+01,-3.643590E+01
+2.813600E+01,-3.669231E+01
+2.814400E+01,-3.503846E+01
+2.815200E+01,-3.802564E+01
+2.816000E+01,-5.873077E+01
+2.816800E+01,-7.825641E+01
+2.817600E+01,-3.584615E+01
+2.818400E+01,+9.670513E+01
+2.819200E+01,+1.794744E+02
+2.820000E+01,+1.252436E+02
+2.820800E+01,-3.571795E+01
+2.821600E+01,-1.332564E+02
+2.822400E+01,-1.246026E+02
+2.823200E+01,-7.580769E+01
+2.824000E+01,-4.538462E+01
+2.824800E+01,-3.796154E+01
+2.825600E+01,-3.615385E+01
+2.826400E+01,-3.274359E+01
+2.827200E+01,-2.876923E+01
+2.828000E+01,-2.411538E+01
+2.828800E+01,-1.852564E+01
+2.829600E+01,-1.237179E+01
+2.830400E+01,-5.974359E+00
+2.831200E+01,+0.000000E+00
+2.832000E+01,+4.512821E+00
+2.832800E+01,+7.871795E+00
+2.833600E+01,+1.139744E+01
+2.834400E+01,+1.462821E+01
+2.835200E+01,+1.808974E+01
+2.836000E+01,+2.264103E+01
+2.836800E+01,+2.861538E+01
+2.837600E+01,+3.608974E+01
+2.838400E+01,+4.430769E+01
+2.839200E+01,+5.316667E+01
+2.840000E+01,+6.075641E+01
+2.840800E+01,+6.384615E+01
+2.841600E+01,+6.252564E+01
+2.842400E+01,+5.920513E+01
+2.843200E+01,+5.689744E+01
+2.844000E+01,+5.597436E+01
+2.844800E+01,+5.474359E+01
+2.845600E+01,+5.329487E+01
+2.846400E+01,+5.184615E+01
+2.847200E+01,+4.955128E+01
+2.848000E+01,+4.342308E+01
+2.848800E+01,+3.067949E+01
+2.849600E+01,+1.388462E+01
+2.850400E+01,-8.717949E-01
+2.851200E+01,-8.987179E+00
+2.852000E+01,-1.232051E+01
+2.852800E+01,-1.733333E+01
+2.853600E+01,-2.161538E+01
+2.854400E+01,-2.408974E+01
+2.855200E+01,-2.162821E+01
+2.856000E+01,-1.930769E+01
+2.856800E+01,-1.874359E+01
+2.857600E+01,-2.101282E+01
+2.858400E+01,-2.503846E+01
+2.859200E+01,-2.733333E+01
+2.860000E+01,-2.637179E+01
+2.860800E+01,-2.388462E+01
+2.861600E+01,-2.212821E+01
+2.862400E+01,-2.194872E+01
+2.863200E+01,-2.235897E+01
+2.864000E+01,-2.379487E+01
+2.864800E+01,-2.602564E+01
+2.865600E+01,-2.814103E+01
+2.866400E+01,-3.023077E+01
+2.867200E+01,-3.258974E+01
+2.868000E+01,-3.475641E+01
+2.868800E+01,-3.507692E+01
+2.869600E+01,-3.333333E+01
+2.870400E+01,-3.101282E+01
+2.871200E+01,-2.848718E+01
+2.872000E+01,-2.638462E+01
+2.872800E+01,-2.633333E+01
+2.873600E+01,-2.966667E+01
+2.874400E+01,-3.466667E+01
+2.875200E+01,-3.697436E+01
+2.876000E+01,-3.451282E+01
+2.876800E+01,-2.939744E+01
+2.877600E+01,-2.471795E+01
+2.878400E+01,-2.041026E+01
+2.879200E+01,-1.350000E+01
+2.880000E+01,-2.512821E+00
+2.880800E+01,+1.075641E+01
+2.881600E+01,+2.265385E+01
+2.882400E+01,+2.820513E+01
+2.883200E+01,+2.365385E+01
+2.884000E+01,+1.010256E+01
+2.884800E+01,-6.128205E+00
+2.885600E+01,-1.807692E+01
+2.886400E+01,-2.569231E+01
+2.887200E+01,-2.939744E+01
+2.888000E+01,-3.275641E+01
+2.888800E+01,-3.584615E+01
+2.889600E+01,-3.597436E+01
+2.890400E+01,-3.166667E+01
+2.891200E+01,-3.356410E+01
+2.892000E+01,-5.734615E+01
+2.892800E+01,-8.091026E+01
+2.893600E+01,-3.825641E+01
+2.894400E+01,+1.019359E+02
+2.895200E+01,+2.597179E+02
+2.896000E+01,+2.953205E+02
+2.896800E+01,+1.638718E+02
+2.897600E+01,-2.826923E+01
+2.898400E+01,-1.405897E+02
+2.899200E+01,-1.364615E+02
+2.900000E+01,-8.342308E+01
+2.900800E+01,-4.748718E+01
+2.901600E+01,-3.735897E+01
+2.902400E+01,-3.351282E+01
+2.903200E+01,-2.608974E+01
+2.904000E+01,-1.910256E+01
+2.904800E+01,-1.516667E+01
+2.905600E+01,-1.362821E+01
+2.906400E+01,-1.314103E+01
+2.907200E+01,-1.064103E+01
+2.908000E+01,-5.692308E+00
+2.908800E+01,+6.923077E-01
+2.909600E+01,+7.205128E+00
+2.910400E+01,+1.269231E+01
+2.911200E+01,+1.738462E+01
+2.912000E+01,+2.107692E+01
+2.912800E+01,+2.476923E+01
+2.913600E+01,+3.102564E+01
+2.914400E+01,+4.019231E+01
+2.915200E+01,+4.924359E+01
+2.916000E+01,+5.450000E+01
+2.916800E+01,+5.678205E+01
+2.917600E+01,+5.906410E+01
+2.918400E+01,+6.162821E+01
+2.919200E+01,+6.246154E+01
+2.920000E+01,+5.965385E+01
+2.920800E+01,+5.438462E+01
+2.921600E+01,+4.783333E+01
+2.922400E+01,+4.333333E+01
+2.923200E+01,+4.164103E+01
+2.924000E+01,+3.864103E+01
+2.924800E+01,+3.056410E+01
+2.925600E+01,+1.882051E+01
+2.926400E+01,+8.730769E+00
+2.927200E+01,+2.500000E+00
+2.928000E+01,-3.730769E+00
+2.928800E+01,-1.252564E+01
+2.929600E+01,-2.267949E+01
+2.930400E+01,-3.020513E+01
+2.931200E+01,-3.242308E+01
+2.932000E+01,-3.066667E+01
+2.932800E+01,-2.685897E+01
+2.933600E+01,-2.200000E+01
+2.934400E+01,-1.764103E+01
+2.935200E+01,-1.621795E+01
+2.936000E+01,-1.782051E+01
+2.936800E+01,-1.807692E+01
+2.937600E+01,-1.510256E+01
+2.938400E+01,-1.394872E+01
+2.939200E+01,-1.938462E+01
+2.940000E+01,-2.874359E+01
+2.940800E+01,-3.432051E+01
+2.941600E+01,-3.364103E+01
+2.942400E+01,-3.069231E+01
+2.943200E+01,-2.865385E+01
+2.944000E+01,-2.812821E+01
+2.944800E+01,-2.805128E+01
+2.945600E+01,-2.752564E+01
+2.946400E+01,-2.673077E+01
+2.947200E+01,-2.651282E+01
+2.948000E+01,-2.853846E+01
+2.948800E+01,-3.189744E+01
+2.949600E+01,-3.333333E+01
+2.950400E+01,-3.247436E+01
+2.951200E+01,-3.083333E+01
+2.952000E+01,-2.998718E+01
+2.952800E+01,-2.902564E+01
+2.953600E+01,-2.537179E+01
+2.954400E+01,-1.937179E+01
+2.955200E+01,-1.587179E+01
+2.956000E+01,-1.824359E+01
+2.956800E+01,-2.161538E+01
+2.957600E+01,-1.741026E+01
+2.958400E+01,-4.910256E+00
+2.959200E+01,+7.500000E+00
+2.960000E+01,+1.466667E+01
+2.960800E+01,+1.908974E+01
+2.961600E+01,+2.203846E+01
+2.962400E+01,+1.915385E+01
+2.963200E+01,+7.166667E+00
+2.964000E+01,-8.833333E+00
+2.964800E+01,-2.016667E+01
+2.965600E+01,-2.466667E+01
+2.966400E+01,-2.575641E+01
+2.967200E+01,-2.774359E+01
+2.968000E+01,-3.185897E+01
+2.968800E+01,-3.446154E+01
+2.969600E+01,-3.275641E+01
+2.970400E+01,-3.251282E+01
+2.971200E+01,-4.934615E+01
+2.972000E+01,-8.125641E+01
+2.972800E+01,-7.776923E+01
+2.973600E+01,+2.000000E+01
+2.974400E+01,+1.882692E+02
+2.975200E+01,+3.007821E+02
+2.976000E+01,+2.483718E+02
+2.976800E+01,+6.775641E+01
+2.977600E+01,-9.729487E+01
+2.978400E+01,-1.485513E+02
+2.979200E+01,-1.114231E+02
+2.980000E+01,-6.434615E+01
+2.980800E+01,-4.301282E+01
+2.981600E+01,-3.567949E+01
+2.982400E+01,-2.692308E+01
+2.983200E+01,-1.753846E+01
+2.984000E+01,-1.270513E+01
+2.984800E+01,-1.112821E+01
+2.985600E+01,-1.006410E+01
+2.986400E+01,-9.205128E+00
+2.987200E+01,-7.153846E+00
+2.988000E+01,-4.346154E+00
+2.988800E+01,+1.717949E+00
+2.989600E+01,+9.871795E+00
+2.990400E+01,+1.841026E+01
+2.991200E+01,+2.634615E+01
+2.992000E+01,+3.476923E+01
+2.992800E+01,+4.447436E+01
+2.993600E+01,+5.341026E+01
+2.994400E+01,+5.787179E+01
+2.995200E+01,+5.592308E+01
+2.996000E+01,+5.020513E+01
+2.996800E+01,+4.638462E+01
+2.997600E+01,+4.766667E+01
+2.998400E+01,+5.241026E+01
+2.999200E+01,+5.707692E+01
+3.000000E+01,+5.966667E+01
+3.000800E+01,+5.967949E+01
+3.001600E+01,+5.746154E+01
+3.002400E+01,+5.456410E+01
+3.003200E+01,+5.200000E+01
+3.004000E+01,+4.665385E+01
+3.004800E+01,+3.406410E+01
+3.005600E+01,+1.519231E+01
+3.006400E+01,-2.858974E+00
+3.007200E+01,-1.402564E+01
+3.008000E+01,-1.946154E+01
+3.008800E+01,-2.319231E+01
+3.009600E+01,-2.552564E+01
+3.010400E+01,-2.507692E+01
+3.011200E+01,-2.252564E+01
+3.012000E+01,-1.914103E+01
+3.012800E+01,-1.419231E+01
+3.013600E+01,-9.038462E+00
+3.014400E+01,-9.346154E+00
+3.015200E+01,-1.780769E+01
+3.016000E+01,-2.946154E+01
+3.016800E+01,-3.629487E+01
+3.017600E+01,-3.556410E+01
+3.018400E+01,-3.229487E+01
+3.019200E+01,-3.180769E+01
+3.020000E+01,-3.217949E+01
+3.020800E+01,-3.023077E+01
+3.021600E+01,-2.521795E+01
+3.022400E+01,-2.288462E+01
+3.023200E+01,-2.498718E+01
+3.024000E+01,-2.971795E+01
+3.024800E+01,-3.412821E+01
+3.025600E+01,-3.660256E+01
+3.026400E+01,-3.656410E+01
+3.027200E+01,-3.514103E+01
+3.028000E+01,-3.520513E+01
+3.028800E+01,-3.865385E+01
+3.029600E+01,-4.269231E+01
+3.030400E+01,-4.146154E+01
+3.031200E+01,-3.387179E+01
+3.032000E+01,-2.529487E+01
+3.032800E+01,-2.100000E+01
+3.033600E+01,-2.085897E+01
+3.034400E+01,-2.132051E+01
+3.035200E+01,-2.108974E+01
+3.036000E+01,-2.019231E+01
+3.036800E+01,-1.625641E+01
+3.037600E+01,-7.038462E+00
+3.038400E+01,+6.307692E+00
+3.039200E+01,+1.900000E+01
+3.040000E+01,+2.512821E+01
+3.040800E+01,+2.161538E+01
+3.041600E+01,+1.003846E+01
+3.042400E+01,-3.961538E+00
+3.043200E+01,-1.578205E+01
+3.044000E+01,-2.571795E+01
+3.044800E+01,-3.438462E+01
+3.045600E+01,-4.079487E+01
+3.046400E+01,-4.326923E+01
+3.047200E+01,-4.111538E+01
+3.048000E+01,-3.547436E+01
+3.048800E+01,-3.210256E+01
+3.049600E+01,-4.548718E+01
+3.050400E+01,-7.778205E+01
+3.051200E+01,-8.452564E+01
+3.052000E+01,-3.000000E+00
+3.052800E+01,+1.452692E+02
+3.053600E+01,+1.875513E+02
+3.054400E+01,+8.062821E+01
+3.055200E+01,-9.216667E+01
+3.056000E+01,-1.550385E+02
+3.056800E+01,-1.193333E+02
+3.057600E+01,-6.492308E+01
+3.058400E+01,-3.861538E+01
+3.059200E+01,-3.455128E+01
+3.060000E+01,-3.391026E+01
+3.060800E+01,-3.070513E+01
+3.061600E+01,-2.567949E+01
+3.062400E+01,-1.910256E+01
+3.063200E+01,-1.350000E+01
+3.064000E+01,-1.001282E+01
+3.064800E+01,-6.602564E+00
+3.065600E+01,-1.961538E+00
+3.066400E+01,+3.935897E+00
+3.067200E+01,+9.282051E+00
+3.068000E+01,+1.361538E+01
+3.068800E+01,+1.830769E+01
+3.069600E+01,+2.451282E+01
+3.070400E+01,+3.233333E+01
+3.071200E+01,+4.074359E+01
+3.072000E+01,+4.807692E+01
+3.072800E+01,+5.333333E+01
+3.073600E+01,+5.598718E+01
+3.074400E+01,+5.662821E+01
+3.075200E+01,+5.632051E+01
+3.076000E+01,+5.673077E+01
+3.076800E+01,+5.846154E+01
+3.077600E+01,+5.938462E+01
+3.078400E+01,+5.842308E+01
+3.079200E+01,+5.766667E+01
+3.080000E+01,+5.869231E+01
+3.080800E+01,+5.893590E+01
+3.081600E+01,+5.301282E+01
+3.082400E+01,+3.987179E+01
+3.083200E+01,+2.397436E+01
+3.084000E+01,+1.023077E+01
+3.084800E+01,+2.307692E-01
+3.085600E+01,-9.987179E+00
+3.086400E+01,-1.846154E+01
+3.087200E+01,-2.343590E+01
+3.088000E+01,-2.132051E+01
+3.088800E+01,-1.756410E+01
+3.089600E+01,-1.703846E+01
+3.090400E+01,-2.032051E+01
+3.091200E+01,-2.379487E+01
+3.092000E+01,-2.452564E+01
+3.092800E+01,-2.415385E+01
+3.093600E+01,-2.488462E+01
+3.094400E+01,-2.578205E+01
+3.095200E+01,-2.542308E+01
+3.096000E+01,-2.348718E+01
+3.096800E+01,-2.182051E+01
+3.097600E+01,-2.264103E+01
+3.098400E+01,-2.582051E+01
+3.099200E+01,-2.980769E+01
+3.100000E+01,-3.192308E+01
+3.100800E+01,-3.174359E+01
+3.101600E+01,-3.212821E+01
+3.102400E+01,-3.430769E+01
+3.103200E+01,-3.612821E+01
+3.104000E+01,-3.430769E+01
+3.104800E+01,-3.065385E+01
+3.105600E+01,-3.075641E+01
+3.106400E+01,-3.562821E+01
+3.107200E+01,-4.069231E+01
+3.108000E+01,-4.052564E+01
+3.108800E+01,-3.560256E+01
+3.109600E+01,-3.106410E+01
+3.110400E+01,-2.935897E+01
+3.111200E+01,-2.867949E+01
+3.112000E+01,-2.562821E+01
+3.112800E+01,-1.811538E+01
+3.113600E+01,-6.500000E+00
+3.114400E+01,+6.089744E+00
+3.115200E+01,+1.382051E+01
+3.116000E+01,+1.370513E+01
+3.116800E+01,+9.692308E+00
+3.117600E+01,+5.987179E+00
+3.118400E+01,+2.115385E+00
+3.119200E+01,-8.141026E+00
+3.120000E+01,-1.957692E+01
+3.120800E+01,-2.967949E+01
+3.121600E+01,-3.432051E+01
+3.122400E+01,-3.792308E+01
+3.123200E+01,-3.806410E+01
+3.124000E+01,-3.302564E+01
+3.124800E+01,-2.948718E+01
+3.125600E+01,-4.305128E+01
+3.126400E+01,-7.756410E+01
+3.127200E+01,-9.135897E+01
+3.128000E+01,-1.848718E+01
+3.128800E+01,+1.416282E+02
+3.129600E+01,+2.778718E+02
+3.130400E+01,+2.619487E+02
+3.131200E+01,+9.583333E+01
+3.132000E+01,-8.517949E+01
+3.132800E+01,-1.594744E+02
+3.133600E+01,-1.287179E+02
+3.134400E+01,-7.278205E+01
+3.135200E+01,-4.339744E+01
+3.136000E+01,-3.733333E+01
+3.136800E+01,-3.516667E+01
+3.137600E+01,-3.041026E+01
+3.138400E+01,-2.428205E+01
+3.139200E+01,-1.769231E+01
+3.140000E+01,-1.276923E+01
+3.140800E+01,-9.346154E+00
+3.141600E+01,-5.282051E+00
+3.142400E+01,+5.769231E-01
+3.143200E+01,+7.320513E+00
+3.144000E+01,+1.294872E+01
+3.144800E+01,+1.710256E+01
+3.145600E+01,+2.041026E+01
+3.146400E+01,+2.500000E+01
+3.147200E+01,+3.210256E+01
+3.148000E+01,+4.051282E+01
+3.148800E+01,+4.774359E+01
+3.149600E+01,+5.266667E+01
+3.150400E+01,+5.774359E+01
+3.151200E+01,+6.356410E+01
+3.152000E+01,+6.685897E+01
+3.152800E+01,+6.310256E+01
+3.153600E+01,+5.843590E+01
+3.154400E+01,+5.641026E+01
+3.155200E+01,+5.812821E+01
+3.156000E+01,+5.869231E+01
+3.156800E+01,+5.889744E+01
+3.157600E+01,+5.757692E+01
+3.158400E+01,+4.942308E+01
+3.159200E+01,+3.183333E+01
+3.160000E+01,+1.125641E+01
+3.160800E+01,-3.474359E+00
+3.161600E+01,-9.730769E+00
+3.162400E+01,-1.164103E+01
+3.163200E+01,-1.380769E+01
+3.164000E+01,-1.691026E+01
+3.164800E+01,-1.939744E+01
+3.165600E+01,-2.026923E+01
+3.166400E+01,-2.023077E+01
+3.167200E+01,-2.042308E+01
+3.168000E+01,-1.950000E+01
+3.168800E+01,-1.679487E+01
+3.169600E+01,-1.523077E+01
+3.170400E+01,-1.906410E+01
+3.171200E+01,-2.729487E+01
+3.172000E+01,-3.320513E+01
+3.172800E+01,-3.320513E+01
+3.173600E+01,-3.114103E+01
+3.174400E+01,-3.112821E+01
+3.175200E+01,-3.228205E+01
+3.176000E+01,-3.137179E+01
+3.176800E+01,-2.965385E+01
+3.177600E+01,-3.057692E+01
+3.178400E+01,-3.365385E+01
+3.179200E+01,-3.514103E+01
+3.180000E+01,-3.323077E+01
+3.180800E+01,-2.960256E+01
+3.181600E+01,-2.679487E+01
+3.182400E+01,-2.569231E+01
+3.183200E+01,-2.673077E+01
+3.184000E+01,-3.000000E+01
+3.184800E+01,-3.419231E+01
+3.185600E+01,-3.334615E+01
+3.186400E+01,-2.480769E+01
+3.187200E+01,-9.743590E+00
+3.188000E+01,+5.012821E+00
+3.188800E+01,+1.674359E+01
+3.189600E+01,+2.429487E+01
+3.190400E+01,+2.555128E+01
+3.191200E+01,+1.700000E+01
+3.192000E+01,-3.589744E-01
+3.192800E+01,-1.878205E+01
+3.193600E+01,-3.129487E+01
+3.194400E+01,-3.770513E+01
+3.195200E+01,-4.152564E+01
+3.196000E+01,-4.408974E+01
+3.196800E+01,-4.406410E+01
+3.197600E+01,-3.950000E+01
+3.198400E+01,-3.226923E+01
+3.199200E+01,-3.450000E+01
+3.200000E+01,-6.133333E+01
+3.200800E+01,-9.321795E+01
+3.201600E+01,-6.444872E+01
+3.202400E+01,+6.496154E+01
+3.203200E+01,+2.247051E+02
+3.204000E+01,+2.748846E+02
+3.204800E+01,+1.584359E+02
+3.205600E+01,-2.807692E+01
+3.206400E+01,-1.428077E+02
+3.207200E+01,-1.428462E+02
+3.208000E+01,-9.097436E+01
+3.208800E+01,-5.325641E+01
+3.209600E+01,-4.061538E+01
+3.210400E+01,-3.591026E+01
+3.211200E+01,-3.123077E+01
+3.212000E+01,-2.774359E+01
+3.212800E+01,-2.356410E+01
+3.213600E+01,-1.594872E+01
+3.214400E+01,-6.641026E+00
+3.215200E+01,+6.153846E-01
+3.216000E+01,+3.871795E+00
+3.216800E+01,+5.205128E+00
+3.217600E+01,+8.256410E+00
+3.218400E+01,+1.424359E+01
+3.219200E+01,+2.211538E+01
+3.220000E+01,+2.997436E+01
+3.220800E+01,+3.756410E+01
+3.221600E+01,+4.528205E+01
+3.222400E+01,+5.343590E+01
+3.223200E+01,+5.998718E+01
+3.224000E+01,+6.343590E+01
+3.224800E+01,+6.391026E+01
+3.225600E+01,+6.380769E+01
+3.226400E+01,+6.448718E+01
+3.227200E+01,+6.593590E+01
+3.228000E+01,+6.780769E+01
+3.228800E+01,+6.900000E+01
+3.229600E+01,+6.784615E+01
+3.230400E+01,+6.270513E+01
+3.231200E+01,+5.442308E+01
+3.232000E+01,+4.535897E+01
+3.232800E+01,+3.556410E+01
+3.233600E+01,+2.402564E+01
+3.234400E+01,+1.107692E+01
+3.235200E+01,-5.256410E-01
+3.236000E+01,-8.025641E+00
+3.236800E+01,-1.174359E+01
+3.237600E+01,-1.429487E+01
+3.238400E+01,-1.773077E+01
+3.239200E+01,-2.135897E+01
+3.240000E+01,-2.169231E+01
+3.240800E+01,-1.821795E+01
+3.241600E+01,-1.438462E+01
+3.242400E+01,-1.383333E+01
+3.243200E+01,-1.658974E+01
+3.244000E+01,-1.897436E+01
+3.244800E+01,-1.917949E+01
+3.245600E+01,-1.800000E+01
+3.246400E+01,-1.702564E+01
+3.247200E+01,-1.838462E+01
+3.248000E+01,-2.207692E+01
+3.248800E+01,-2.608974E+01
+3.249600E+01,-2.760256E+01
+3.250400E+01,-2.580769E+01
+3.251200E+01,-2.335897E+01
+3.252000E+01,-2.210256E+01
+3.252800E+01,-2.276923E+01
+3.253600E+01,-2.401282E+01
+3.254400E+01,-2.575641E+01
+3.255200E+01,-2.732051E+01
+3.256000E+01,-2.729487E+01
+3.256800E+01,-2.442308E+01
+3.257600E+01,-1.871795E+01
+3.258400E+01,-1.135897E+01
+3.259200E+01,-1.615385E+00
+3.260000E+01,+1.071795E+01
+3.260800E+01,+2.164103E+01
+3.261600E+01,+2.606410E+01
+3.262400E+01,+2.191026E+01
+3.263200E+01,+1.144872E+01
+3.264000E+01,-2.897436E+00
+3.264800E+01,-1.957692E+01
+3.265600E+01,-3.376923E+01
+3.266400E+01,-3.969231E+01
+3.267200E+01,-3.778205E+01
+3.268000E+01,-3.366667E+01
+3.268800E+01,-3.107692E+01
+3.269600E+01,-2.837179E+01
+3.270400E+01,-2.855128E+01
+3.271200E+01,-4.430769E+01
+3.272000E+01,-7.010256E+01
+3.272800E+01,-5.578205E+01
+3.273600E+01,+5.067949E+01
+3.274400E+01,+2.135641E+02
+3.275200E+01,+3.033718E+02
+3.276000E+01,+2.277949E+02
+3.276800E+01,+4.260256E+01
+3.277600E+01,-1.077949E+02
+3.278400E+01,-1.435000E+02
+3.279200E+01,-1.034359E+02
+3.280000E+01,-5.980769E+01
+3.280800E+01,-3.893590E+01
+3.281600E+01,-2.957692E+01
+3.282400E+01,-2.201282E+01
+3.283200E+01,-1.651282E+01
+3.284000E+01,-1.088462E+01
+3.284800E+01,-2.692308E+00
+3.285600E+01,+6.076923E+00
+3.286400E+01,+1.088462E+01
+3.287200E+01,+1.165385E+01
+3.288000E+01,+1.069231E+01
+3.288800E+01,+1.214103E+01
+3.289600E+01,+1.682051E+01
+3.290400E+01,+2.535897E+01
+3.291200E+01,+3.820513E+01
+3.292000E+01,+5.206410E+01
+3.292800E+01,+6.141026E+01
+3.293600E+01,+6.496154E+01
+3.294400E+01,+6.667949E+01
+3.295200E+01,+7.025641E+01
+3.296000E+01,+7.450000E+01
+3.296800E+01,+7.643590E+01
+3.297600E+01,+7.660256E+01
+3.298400E+01,+7.656410E+01
+3.299200E+01,+7.596154E+01
+3.300000E+01,+7.432051E+01
+3.300800E+01,+7.234615E+01
+3.301600E+01,+7.062821E+01
+3.302400E+01,+6.617949E+01
+3.303200E+01,+5.575641E+01
+3.304000E+01,+4.039744E+01
+3.304800E+01,+2.343590E+01
+3.305600E+01,+9.076923E+00
+3.306400E+01,-8.846154E-01
+3.307200E+01,-7.294872E+00
+3.308000E+01,-1.276923E+01
+3.308800E+01,-1.951282E+01
+3.309600E+01,-2.474359E+01
+3.310400E+01,-2.437179E+01
+3.311200E+01,-1.978205E+01
+3.312000E+01,-1.639744E+01
+3.312800E+01,-1.573077E+01
+3.313600E+01,-1.338462E+01
+3.314400E+01,-9.128205E+00
+3.315200E+01,-9.884615E+00
+3.316000E+01,-1.798718E+01
+3.316800E+01,-2.701282E+01
+3.317600E+01,-3.002564E+01
+3.318400E+01,-2.889744E+01
+3.319200E+01,-2.938462E+01
+3.320000E+01,-3.035897E+01
+3.320800E+01,-3.126923E+01
+3.321600E+01,-3.039744E+01
+3.322400E+01,-3.051282E+01
+3.323200E+01,-2.937179E+01
+3.324000E+01,-2.567949E+01
+3.324800E+01,-1.962821E+01
+3.325600E+01,-1.243590E+01
+3.326400E+01,-5.961538E+00
+3.327200E+01,-2.051282E-01
+3.328000E+01,+5.487179E+00
+3.328800E+01,+9.692308E+00
+3.329600E+01,+8.333333E+00
+3.330400E+01,-8.205128E-01
+3.331200E+01,-1.373077E+01
+3.332000E+01,-2.464103E+01
+3.332800E+01,-3.210256E+01
+3.333600E+01,-3.794872E+01
+3.334400E+01,-4.371795E+01
+3.335200E+01,-4.716667E+01
+3.336000E+01,-4.578205E+01
+3.336800E+01,-4.102564E+01
+3.337600E+01,-4.207692E+01
+3.338400E+01,-5.967949E+01
+3.339200E+01,-7.578205E+01
+3.340000E+01,-3.652564E+01
+3.340800E+01,+8.848718E+01
+3.341600E+01,+2.358590E+02
+3.342400E+01,+2.809872E+02
+3.343200E+01,+1.712436E+02
+3.344000E+01,-8.756410E+00
+3.344800E+01,-1.282308E+02
+3.345600E+01,-1.391667E+02
+3.346400E+01,-9.243590E+01
+3.347200E+01,-5.123077E+01
+3.348000E+01,-3.401282E+01
+3.348800E+01,-2.993590E+01
+3.349600E+01,-2.878205E+01
+3.350400E+01,-2.810256E+01
+3.351200E+01,-2.657692E+01
+3.352000E+01,-2.387179E+01
+3.352800E+01,-2.056410E+01
+3.353600E+01,-1.365385E+01
+3.354400E+01,-3.435897E+00
+3.355200E+01,+6.461538E+00
+3.356000E+01,+1.187179E+01
+3.356800E+01,+1.406410E+01
+3.357600E+01,+1.807692E+01
+3.358400E+01,+2.592308E+01
+3.359200E+01,+3.539744E+01
+3.360000E+01,+4.311538E+01
+3.360800E+01,+4.901282E+01
+3.361600E+01,+5.453846E+01
+3.362400E+01,+5.937179E+01
+3.363200E+01,+6.288462E+01
+3.364000E+01,+6.475641E+01
+3.364800E+01,+6.533333E+01
+3.365600E+01,+6.484615E+01
+3.366400E+01,+6.275641E+01
+3.367200E+01,+5.934615E+01
+3.368000E+01,+5.510256E+01
+3.368800E+01,+5.017949E+01
+3.369600E+01,+4.423077E+01
+3.370400E+01,+3.491026E+01
+3.371200E+01,+2.097436E+01
+3.372000E+01,+3.282051E+00
+3.372800E+01,-1.423077E+01
+3.373600E+01,-2.589744E+01
+3.374400E+01,-2.961538E+01
+3.375200E+01,-2.862821E+01
+3.376000E+01,-2.896154E+01
+3.376800E+01,-3.282051E+01
+3.377600E+01,-3.594872E+01
+3.378400E+01,-3.502564E+01
+3.379200E+01,-3.173077E+01
+3.380000E+01,-3.032051E+01
+3.380800E+01,-3.143590E+01
+3.381600E+01,-3.155128E+01
+3.382400E+01,-2.973077E+01
+3.383200E+01,-2.835897E+01
+3.384000E+01,-2.858974E+01
+3.384800E+01,-2.874359E+01
+3.385600E+01,-3.025641E+01
+3.386400E+01,-3.538462E+01
+3.387200E+01,-4.221795E+01
+3.388000E+01,-4.437179E+01
+3.388800E+01,-3.980769E+01
+3.389600E+01,-3.267949E+01
+3.390400E+01,-2.606410E+01
+3.391200E+01,-1.774359E+01
+3.392000E+01,-6.153846E+00
+3.392800E+01,+5.294872E+00
+3.393600E+01,+1.064103E+01
+3.394400E+01,+6.500000E+00
+3.395200E+01,-6.076923E+00
+3.396000E+01,-2.366667E+01
+3.396800E+01,-4.069231E+01
+3.397600E+01,-5.132051E+01
+3.398400E+01,-5.358974E+01
+3.399200E+01,-5.124359E+01
+3.400000E+01,-4.979487E+01
+3.400800E+01,-4.938462E+01
+3.401600E+01,-4.624359E+01
+3.402400E+01,-4.321795E+01
+3.403200E+01,-5.312821E+01
+3.404000E+01,-7.443590E+01
+3.404800E+01,-6.301282E+01
+3.405600E+01,+3.132051E+01
+3.406400E+01,+1.809359E+02
+3.407200E+01,+2.697436E+02
+3.408000E+01,+2.073333E+02
+3.408800E+01,+3.782051E+01
+3.409600E+01,-1.058718E+02
+3.410400E+01,-1.444615E+02
+3.411200E+01,-1.095385E+02
+3.412000E+01,-6.988462E+01
+3.412800E+01,-5.166667E+01
+3.413600E+01,-4.337179E+01
+3.414400E+01,-3.630769E+01
+3.415200E+01,-3.203846E+01
+3.416000E+01,-2.948718E+01
+3.416800E+01,-2.457692E+01
+3.417600E+01,-1.884615E+01
+3.418400E+01,-1.642308E+01
+3.419200E+01,-1.508974E+01
+3.420000E+01,-1.061538E+01
+3.420800E+01,-1.384615E+00
+3.421600E+01,+8.974359E+00
+3.422400E+01,+1.748718E+01
+3.423200E+01,+2.474359E+01
+3.424000E+01,+3.111538E+01
+3.424800E+01,+3.615385E+01
+3.425600E+01,+4.085897E+01
+3.426400E+01,+4.700000E+01
+3.427200E+01,+5.394872E+01
+3.428000E+01,+5.761538E+01
+3.428800E+01,+5.642308E+01
+3.429600E+01,+5.402564E+01
+3.430400E+01,+5.378205E+01
+3.431200E+01,+5.496154E+01
+3.432000E+01,+5.450000E+01
+3.432800E+01,+5.200000E+01
+3.433600E+01,+4.907692E+01
+3.434400E+01,+4.462821E+01
+3.435200E+01,+3.630769E+01
+3.436000E+01,+2.273077E+01
+3.436800E+01,+6.102564E+00
+3.437600E+01,-8.717949E+00
+3.438400E+01,-1.902564E+01
+3.439200E+01,-2.461538E+01
+3.440000E+01,-2.764103E+01
+3.440800E+01,-2.961538E+01
+3.441600E+01,-3.106410E+01
+3.442400E+01,-3.306410E+01
+3.443200E+01,-3.441026E+01
+3.444000E+01,-3.253846E+01
+3.444800E+01,-2.680769E+01
+3.445600E+01,-2.112821E+01
+3.446400E+01,-2.008974E+01
+3.447200E+01,-2.226923E+01
+3.448000E+01,-2.433333E+01
+3.448800E+01,-2.520513E+01
+3.449600E+01,-2.592308E+01
+3.450400E+01,-2.752564E+01
+3.451200E+01,-2.991026E+01
+3.452000E+01,-3.456410E+01
+3.452800E+01,-3.764103E+01
+3.453600E+01,-3.714103E+01
+3.454400E+01,-3.214103E+01
+3.455200E+01,-2.526923E+01
+3.456000E+01,-1.744872E+01
+3.456800E+01,-9.153846E+00
+3.457600E+01,-1.692308E+00
+3.458400E+01,+4.192308E+00
+3.459200E+01,+7.320513E+00
+3.460000E+01,+4.730769E+00
+3.460800E+01,-4.769231E+00
+3.461600E+01,-1.875641E+01
+3.462400E+01,-3.244872E+01
+3.463200E+01,-4.216667E+01
+3.464000E+01,-4.706410E+01
+3.464800E+01,-4.858974E+01
+3.465600E+01,-4.973077E+01
+3.466400E+01,-5.026923E+01
+3.467200E+01,-4.741026E+01
+3.468000E+01,-4.412821E+01
+3.468800E+01,-5.443590E+01
+3.469600E+01,-7.889744E+01
+3.470400E+01,-7.144872E+01
+3.471200E+01,+2.480769E+01
+3.472000E+01,+1.859872E+02
+3.472800E+01,+2.889231E+02
+3.473600E+01,+2.311923E+02
+3.474400E+01,+5.255128E+01
+3.475200E+01,-1.065513E+02
+3.476000E+01,-1.545897E+02
+3.476800E+01,-1.183590E+02
+3.477600E+01,-7.194872E+01
+3.478400E+01,-4.919231E+01
+3.479200E+01,-4.053846E+01
+3.480000E+01,-3.332051E+01
+3.480800E+01,-2.684615E+01
+3.481600E+01,-2.219231E+01
+3.482400E+01,-1.837179E+01
+3.483200E+01,-1.616667E+01
+3.484000E+01,-1.535897E+01
+3.484800E+01,-1.382051E+01
+3.485600E+01,-8.000000E+00
+3.486400E+01,-1.294872E+00
+3.487200E+01,+6.371795E+00
+3.488000E+01,+1.261538E+01
+3.488800E+01,+2.076923E+01
+3.489600E+01,+2.974359E+01
+3.490400E+01,+3.879487E+01
+3.491200E+01,+4.650000E+01
+3.492000E+01,+5.034615E+01
+3.492800E+01,+5.142308E+01
+3.493600E+01,+5.301282E+01
+3.494400E+01,+5.642308E+01
+3.495200E+01,+5.871795E+01
+3.496000E+01,+5.706410E+01
+3.496800E+01,+5.406410E+01
+3.497600E+01,+5.362821E+01
+3.498400E+01,+5.601282E+01
+3.499200E+01,+5.693590E+01
+3.500000E+01,+5.139744E+01
+3.500800E+01,+3.887179E+01
+3.501600E+01,+2.273077E+01
+3.502400E+01,+8.179487E+00
+3.503200E+01,-2.192308E+00
+3.504000E+01,-1.066667E+01
+3.504800E+01,-1.983333E+01
+3.505600E+01,-2.862821E+01
+3.506400E+01,-3.334615E+01
+3.507200E+01,-3.279487E+01
+3.508000E+01,-3.067949E+01
+3.508800E+01,-2.935897E+01
+3.509600E+01,-2.835897E+01
+3.510400E+01,-2.733333E+01
+3.511200E+01,-2.710256E+01
+3.512000E+01,-2.753846E+01
+3.512800E+01,-2.637179E+01
+3.513600E+01,-2.416667E+01
+3.514400E+01,-2.442308E+01
+3.515200E+01,-2.744872E+01
+3.516000E+01,-3.000000E+01
+3.516800E+01,-3.039744E+01
+3.517600E+01,-3.076923E+01
+3.518400E+01,-3.242308E+01
+3.519200E+01,-3.353846E+01
+3.520000E+01,-3.432051E+01
+3.520800E+01,-3.360256E+01
+3.521600E+01,-3.247436E+01
+3.522400E+01,-3.102564E+01
+3.523200E+01,-3.000000E+01
+3.524000E+01,-2.578205E+01
+3.524800E+01,-1.406410E+01
+3.525600E+01,+2.397436E+00
+3.526400E+01,+1.534615E+01
+3.527200E+01,+1.894872E+01
+3.528000E+01,+1.360256E+01
+3.528800E+01,+2.538462E+00
+3.529600E+01,-1.184615E+01
+3.530400E+01,-2.533333E+01
+3.531200E+01,-3.343590E+01
+3.532000E+01,-3.562821E+01
+3.532800E+01,-3.632051E+01
+3.533600E+01,-4.029487E+01
+3.534400E+01,-4.466667E+01
+3.535200E+01,-4.323077E+01
+3.536000E+01,-3.789744E+01
+3.536800E+01,-4.376923E+01
+3.537600E+01,-7.098718E+01
+3.538400E+01,-8.676923E+01
+3.539200E+01,-2.700000E+01
+3.540000E+01,+1.219103E+02
+3.540800E+01,+2.661282E+02
+3.541600E+01,+2.762436E+02
+3.542400E+01,+1.319744E+02
+3.543200E+01,-4.951282E+01
+3.544000E+01,-1.421538E+02
+3.544800E+01,-1.291154E+02
+3.545600E+01,-8.093590E+01
+3.546400E+01,-5.234615E+01
+3.547200E+01,-4.394872E+01
+3.548000E+01,-3.852564E+01
+3.548800E+01,-3.126923E+01
+3.549600E+01,-2.556410E+01
+3.550400E+01,-2.093590E+01
+3.551200E+01,-1.569231E+01
+3.552000E+01,-1.065385E+01
+3.552800E+01,-6.384615E+00
+3.553600E+01,-2.423077E+00
+3.554400E+01,+2.576923E+00
+3.555200E+01,+8.628205E+00
+3.556000E+01,+1.462821E+01
+3.556800E+01,+2.092308E+01
+3.557600E+01,+2.865385E+01
+3.558400E+01,+3.824359E+01
+3.559200E+01,+4.728205E+01
+3.560000E+01,+5.361538E+01
+3.560800E+01,+5.748718E+01
+3.561600E+01,+6.011538E+01
+3.562400E+01,+6.241026E+01
+3.563200E+01,+6.328205E+01
+3.564000E+01,+6.271795E+01
+3.564800E+01,+6.283333E+01
+3.565600E+01,+6.419231E+01
+3.566400E+01,+6.498718E+01
+3.567200E+01,+6.243590E+01
+3.568000E+01,+5.594872E+01
+3.568800E+01,+4.708974E+01
+3.569600E+01,+3.601282E+01
+3.570400E+01,+2.282051E+01
+3.571200E+01,+9.153846E+00
+3.572000E+01,-2.346154E+00
+3.572800E+01,-1.000000E+01
+3.573600E+01,-1.573077E+01
+3.574400E+01,-2.067949E+01
+3.575200E+01,-2.378205E+01
+3.576000E+01,-2.429487E+01
+3.576800E+01,-2.348718E+01
+3.577600E+01,-2.361538E+01
+3.578400E+01,-2.384615E+01
+3.579200E+01,-2.261538E+01
+3.580000E+01,-2.126923E+01
+3.580800E+01,-2.180769E+01
+3.581600E+01,-2.391026E+01
+3.582400E+01,-2.464103E+01
+3.583200E+01,-2.280769E+01
+3.584000E+01,-2.092308E+01
+3.584800E+01,-2.144872E+01
+3.585600E+01,-2.356410E+01
+3.586400E+01,-2.498718E+01
+3.587200E+01,-2.587179E+01
+3.588000E+01,-2.852564E+01
+3.588800E+01,-3.362821E+01
+3.589600E+01,-3.847436E+01
+3.590400E+01,-3.964103E+01
+3.591200E+01,-3.615385E+01
+3.592000E+01,-3.039744E+01
+3.592800E+01,-2.661538E+01
+3.593600E+01,-2.733333E+01
+3.594400E+01,-3.050000E+01
+3.595200E+01,-3.282051E+01
+3.596000E+01,-3.370513E+01
+3.596800E+01,-3.412821E+01
+3.597600E+01,-3.337179E+01
+3.598400E+01,-2.952564E+01
+3.599200E+01,-2.321795E+01
+3.600000E+01,-1.650000E+01
+3.600800E+01,-9.076923E+00
+3.601600E+01,+2.820513E-01
+3.602400E+01,+1.042308E+01
+3.603200E+01,+1.764103E+01
+3.604000E+01,+1.850000E+01
+3.604800E+01,+1.242308E+01
+3.605600E+01,+1.346154E+00
+3.606400E+01,-1.044872E+01
+3.607200E+01,-1.974359E+01
+3.608000E+01,-2.676923E+01
+3.608800E+01,-3.262821E+01
+3.609600E+01,-3.734615E+01
+3.610400E+01,-4.019231E+01
+3.611200E+01,-3.955128E+01
+3.612000E+01,-3.452564E+01
+3.612800E+01,-2.932051E+01
+3.613600E+01,-3.974359E+01
+3.614400E+01,-7.150000E+01
+3.615200E+01,-8.258974E+01
+3.616000E+01,-6.743590E+00
+3.616800E+01,+1.558333E+02
+3.617600E+01,+2.918846E+02
+3.618400E+01,+2.746282E+02
+3.619200E+01,+8.675641E+01
+3.620000E+01,-7.065385E+01
+3.620800E+01,-1.235897E+02
+3.621600E+01,-7.032051E+01
+3.622400E+01,-4.170513E+01
+3.623200E+01,-3.532051E+01
+3.624000E+01,-3.134615E+01
+3.624800E+01,-2.452564E+01
+3.625600E+01,-1.896154E+01
+3.626400E+01,-1.503846E+01
+3.627200E+01,-1.125641E+01
+3.628000E+01,-7.153846E+00
+3.628800E+01,-4.564103E+00
+3.629600E+01,-4.269231E+00
+3.630400E+01,-2.717949E+00
+3.631200E+01,+2.705128E+00
+3.632000E+01,+1.134615E+01
+3.632800E+01,+2.016667E+01
+3.633600E+01,+2.776923E+01
+3.634400E+01,+3.502564E+01
+3.635200E+01,+4.273077E+01
+3.636000E+01,+5.043590E+01
+3.636800E+01,+5.674359E+01
+3.637600E+01,+6.076923E+01
+3.638400E+01,+6.314103E+01
+3.639200E+01,+6.497436E+01
+3.640000E+01,+6.560256E+01
+3.640800E+01,+6.380769E+01
+3.641600E+01,+6.035897E+01
+3.642400E+01,+5.837179E+01
+3.643200E+01,+5.948718E+01
+3.644000E+01,+6.058974E+01
+3.644800E+01,+5.789744E+01
+3.645600E+01,+5.005128E+01
+3.646400E+01,+3.908974E+01
+3.647200E+01,+2.767949E+01
+3.648000E+01,+1.735897E+01
+3.648800E+01,+9.038462E+00
+3.649600E+01,+1.243590E+00
+3.650400E+01,-7.115385E+00
+3.651200E+01,-1.475641E+01
+3.652000E+01,-1.984615E+01
+3.652800E+01,-2.152564E+01
+3.653600E+01,-2.303846E+01
+3.654400E+01,-2.407692E+01
+3.655200E+01,-2.467949E+01
+3.656000E+01,-2.516667E+01
+3.656800E+01,-2.638462E+01
+3.657600E+01,-2.703846E+01
+3.658400E+01,-2.565385E+01
+3.659200E+01,-2.380769E+01
+3.660000E+01,-2.278205E+01
+3.660800E+01,-2.238462E+01
+3.661600E+01,-2.132051E+01
+3.662400E+01,-2.050000E+01
+3.663200E+01,-2.314103E+01
+3.664000E+01,-2.853846E+01
+3.664800E+01,-3.319231E+01
+3.665600E+01,-3.351282E+01
+3.666400E+01,-3.000000E+01
+3.667200E+01,-2.755128E+01
+3.668000E+01,-2.719231E+01
+3.668800E+01,-2.676923E+01
+3.669600E+01,-2.476923E+01
+3.670400E+01,-2.314103E+01
+3.671200E+01,-2.548718E+01
+3.672000E+01,-2.942308E+01
+3.672800E+01,-3.037179E+01
+3.673600E+01,-2.837179E+01
+3.674400E+01,-2.826923E+01
+3.675200E+01,-3.215385E+01
+3.676000E+01,-3.439744E+01
+3.676800E+01,-3.108974E+01
+3.677600E+01,-2.592308E+01
+3.678400E+01,-2.461538E+01
+3.679200E+01,-2.634615E+01
+3.680000E+01,-2.441026E+01
+3.680800E+01,-1.605128E+01
+3.681600E+01,-5.576923E+00
+3.682400E+01,+2.653846E+00
+3.683200E+01,+9.294872E+00
+3.684000E+01,+1.729487E+01
+3.684800E+01,+2.453846E+01
+3.685600E+01,+1.852564E+01
+3.686400E+01,+4.333333E+00
+3.687200E+01,-1.241026E+01
+3.688000E+01,-1.982051E+01
+3.688800E+01,-2.361538E+01
+3.689600E+01,-2.710256E+01
+3.690400E+01,-3.230769E+01
+3.691200E+01,-3.814103E+01
+3.692000E+01,-3.887179E+01
+3.692800E+01,-3.169231E+01
+3.693600E+01,-2.674359E+01
+3.694400E+01,-4.357692E+01
+3.695200E+01,-7.541026E+01
+3.696000E+01,-6.321795E+01
+3.696800E+01,+4.878205E+01
+3.697600E+01,+2.201795E+02
+3.698400E+01,+3.144872E+02
+3.699200E+01,+2.360897E+02
+3.700000E+01,+4.430769E+01
+3.700800E+01,-1.115897E+02
+3.701600E+01,-1.478462E+02
+3.702400E+01,-1.033462E+02
+3.703200E+01,-5.693590E+01
+3.704000E+01,-3.960256E+01
+3.704800E+01,-3.806410E+01
+3.705600E+01,-3.488462E+01
+3.706400E+01,-2.703846E+01
+3.707200E+01,-1.894872E+01
+3.708000E+01,-1.380769E+01
+3.708800E+01,-1.148718E+01
+3.709600E+01,-8.397436E+00
+3.710400E+01,-3.769231E+00
+3.711200E+01,-1.615385E+00
+3.712000E+01,-1.679487E+00
+3.712800E+01,+6.538462E-01
+3.713600E+01,+7.923077E+00
+3.714400E+01,+1.705128E+01
+3.715200E+01,+2.330769E+01
+3.716000E+01,+2.732051E+01
+3.716800E+01,+3.373077E+01
+3.717600E+01,+4.520513E+01
+3.718400E+01,+5.792308E+01
+3.719200E+01,+6.483333E+01
+3.720000E+01,+6.673077E+01
+3.720800E+01,+6.648718E+01
+3.721600E+01,+6.662821E+01
+3.722400E+01,+6.482051E+01
+3.723200E+01,+6.242308E+01
+3.724000E+01,+6.060256E+01
+3.724800E+01,+5.728205E+01
+3.725600E+01,+5.164103E+01
+3.726400E+01,+4.516667E+01
+3.727200E+01,+3.798718E+01
+3.728000E+01,+2.724359E+01
+3.728800E+01,+1.275641E+01
+3.729600E+01,-7.179487E-01
+3.730400E+01,-1.055128E+01
+3.731200E+01,-1.853846E+01
+3.732000E+01,-2.492308E+01
+3.732800E+01,-2.700000E+01
+3.733600E+01,-2.500000E+01
+3.734400E+01,-2.382051E+01
+3.735200E+01,-2.635897E+01
+3.736000E+01,-2.962821E+01
+3.736800E+01,-3.019231E+01
+3.737600E+01,-2.832051E+01
+3.738400E+01,-2.600000E+01
+3.739200E+01,-2.419231E+01
+3.740000E+01,-2.225641E+01
+3.740800E+01,-2.051282E+01
+3.741600E+01,-1.997436E+01
+3.742400E+01,-2.153846E+01
+3.743200E+01,-2.575641E+01
+3.744000E+01,-3.074359E+01
+3.744800E+01,-3.441026E+01
+3.745600E+01,-3.616667E+01
+3.746400E+01,-3.647436E+01
+3.747200E+01,-3.547436E+01
+3.748000E+01,-3.220513E+01
+3.748800E+01,-2.817949E+01
+3.749600E+01,-2.583333E+01
+3.750400E+01,-2.528205E+01
+3.751200E+01,-2.612821E+01
+3.752000E+01,-3.089744E+01
+3.752800E+01,-3.676923E+01
+3.753600E+01,-4.051282E+01
+3.754400E+01,-3.839744E+01
+3.755200E+01,-3.464103E+01
+3.756000E+01,-3.092308E+01
+3.756800E+01,-2.746154E+01
+3.757600E+01,-2.488462E+01
+3.758400E+01,-2.432051E+01
+3.759200E+01,-2.448718E+01
+3.760000E+01,-2.301282E+01
+3.760800E+01,-1.975641E+01
+3.761600E+01,-1.675641E+01
+3.762400E+01,-1.528205E+01
+3.763200E+01,-1.337179E+01
+3.764000E+01,-7.705128E+00
+3.764800E+01,+2.333333E+00
+3.765600E+01,+1.379487E+01
+3.766400E+01,+2.164103E+01
+3.767200E+01,+2.139744E+01
+3.768000E+01,+1.229487E+01
+3.768800E+01,-1.679487E+00
+3.769600E+01,-1.369231E+01
+3.770400E+01,-2.048718E+01
+3.771200E+01,-2.467949E+01
+3.772000E+01,-2.935897E+01
+3.772800E+01,-3.502564E+01
+3.773600E+01,-3.924359E+01
+3.774400E+01,-3.814103E+01
+3.775200E+01,-3.137179E+01
+3.776000E+01,-2.788462E+01
+3.776800E+01,-4.579487E+01
+3.777600E+01,-8.153846E+01
+3.778400E+01,-7.953846E+01
+3.779200E+01,+2.155128E+01
+3.780000E+01,+1.941282E+02
+3.780800E+01,+3.064744E+02
+3.781600E+01,+2.506154E+02
+3.782400E+01,+6.801282E+01
+3.783200E+01,-9.652564E+01
+3.784000E+01,-1.469231E+02
+3.784800E+01,-1.097564E+02
+3.785600E+01,-6.238462E+01
+3.786400E+01,-3.830769E+01
+3.787200E+01,-3.044872E+01
+3.788000E+01,-2.308974E+01
+3.788800E+01,-1.917949E+01
+3.789600E+01,-1.687179E+01
+3.790400E+01,-1.412821E+01
+3.791200E+01,-1.062821E+01
+3.792000E+01,-7.333333E+00
+3.792800E+01,-4.884615E+00
+3.793600E+01,-1.230769E+00
+3.794400E+01,+3.602564E+00
+3.795200E+01,+8.461538E+00
+3.796000E+01,+1.383333E+01
+3.796800E+01,+2.078205E+01
+3.797600E+01,+2.996154E+01
+3.798400E+01,+3.885897E+01
+3.799200E+01,+4.475641E+01
+3.800000E+01,+4.846154E+01
+3.800800E+01,+5.334615E+01
+3.801600E+01,+6.161538E+01
+3.802400E+01,+6.856410E+01
+3.803200E+01,+6.846154E+01
+3.804000E+01,+6.270513E+01
+3.804800E+01,+5.837179E+01
+3.805600E+01,+5.975641E+01
+3.806400E+01,+6.242308E+01
+3.807200E+01,+6.032051E+01
+3.808000E+01,+5.315385E+01
+3.808800E+01,+4.433333E+01
+3.809600E+01,+3.629487E+01
+3.810400E+01,+2.758974E+01
+3.811200E+01,+1.666667E+01
+3.812000E+01,+4.615385E+00
+3.812800E+01,-7.076923E+00
+3.813600E+01,-1.771795E+01
+3.814400E+01,-2.707692E+01
+3.815200E+01,-3.358974E+01
+3.816000E+01,-3.470513E+01
+3.816800E+01,-3.130769E+01
+3.817600E+01,-2.732051E+01
+3.818400E+01,-2.601282E+01
+3.819200E+01,-2.569231E+01
+3.820000E+01,-2.435897E+01
+3.820800E+01,-2.193590E+01
+3.821600E+01,-2.074359E+01
+3.822400E+01,-2.228205E+01
+3.823200E+01,-2.612821E+01
+3.824000E+01,-3.121795E+01
+3.824800E+01,-3.528205E+01
+3.825600E+01,-3.621795E+01
+3.826400E+01,-3.444872E+01
+3.827200E+01,-3.202564E+01
+3.828000E+01,-3.151282E+01
+3.828800E+01,-3.308974E+01
+3.829600E+01,-3.375641E+01
+3.830400E+01,-3.187179E+01
+3.831200E+01,-2.953846E+01
+3.832000E+01,-3.082051E+01
+3.832800E+01,-3.643590E+01
+3.833600E+01,-4.151282E+01
+3.834400E+01,-4.219231E+01
+3.835200E+01,-3.917949E+01
+3.836000E+01,-3.556410E+01
+3.836800E+01,-3.335897E+01
+3.837600E+01,-3.126923E+01
+3.838400E+01,-2.896154E+01
+3.839200E+01,-2.737179E+01
+3.840000E+01,-2.664103E+01
+3.840800E+01,-2.650000E+01
+3.841600E+01,-2.564103E+01
+3.842400E+01,-2.364103E+01
+3.843200E+01,-1.996154E+01
+3.844000E+01,-1.338462E+01
+3.844800E+01,-5.115385E+00
+3.845600E+01,+3.192308E+00
+3.846400E+01,+1.088462E+01
+3.847200E+01,+1.803846E+01
+3.848000E+01,+2.291026E+01
+3.848800E+01,+2.051282E+01
+3.849600E+01,+9.243590E+00
+3.850400E+01,-5.589744E+00
+3.851200E+01,-1.706410E+01
+3.852000E+01,-2.701282E+01
+3.852800E+01,-3.594872E+01
+3.853600E+01,-4.429487E+01
+3.854400E+01,-4.466667E+01
+3.855200E+01,-3.689744E+01
+3.856000E+01,-2.966667E+01
+3.856800E+01,-4.092308E+01
+3.857600E+01,-7.206410E+01
+3.858400E+01,-7.717949E+01
+3.859200E+01,+4.923077E+00
+3.860000E+01,+1.619359E+02
+3.860800E+01,+2.788974E+02
+3.861600E+01,+2.439231E+02
+3.862400E+01,+7.743590E+01
+3.863200E+01,-8.724359E+01
+3.864000E+01,-1.467308E+02
+3.864800E+01,-1.146923E+02
+3.865600E+01,-6.565385E+01
+3.866400E+01,-4.157692E+01
+3.867200E+01,-3.629487E+01
+3.868000E+01,-3.346154E+01
+3.868800E+01,-2.916667E+01
+3.869600E+01,-2.396154E+01
+3.870400E+01,-1.652564E+01
+3.871200E+01,-8.076923E+00
+3.872000E+01,-1.897436E+00
+3.872800E+01,-4.487179E-01
+3.873600E+01,-2.294872E+00
+3.874400E+01,-3.076923E+00
+3.875200E+01,+8.589744E-01
+3.876000E+01,+8.320513E+00
+3.876800E+01,+1.566667E+01
+3.877600E+01,+2.216667E+01
+3.878400E+01,+2.951282E+01
+3.879200E+01,+3.905128E+01
+3.880000E+01,+4.821795E+01
+3.880800E+01,+5.379487E+01
+3.881600E+01,+5.657692E+01
+3.882400E+01,+5.907692E+01
+3.883200E+01,+6.276923E+01
+3.884000E+01,+6.570513E+01
+3.884800E+01,+6.524359E+01
+3.885600E+01,+6.174359E+01
+3.886400E+01,+5.888462E+01
+3.887200E+01,+5.692308E+01
+3.888000E+01,+5.403846E+01
+3.888800E+01,+4.694872E+01
+3.889600E+01,+3.569231E+01
+3.890400E+01,+2.296154E+01
+3.891200E+01,+1.171795E+01
+3.892000E+01,+3.269231E+00
+3.892800E+01,-3.282051E+00
+3.893600E+01,-9.961538E+00
+3.894400E+01,-1.638462E+01
+3.895200E+01,-2.101282E+01
+3.896000E+01,-2.378205E+01
+3.896800E+01,-2.448718E+01
+3.897600E+01,-2.307692E+01
+3.898400E+01,-2.141026E+01
+3.899200E+01,-2.302564E+01
+3.900000E+01,-2.950000E+01
+3.900800E+01,-3.583333E+01
+3.901600E+01,-3.588462E+01
+3.902400E+01,-2.952564E+01
+3.903200E+01,-2.308974E+01
+3.904000E+01,-2.243590E+01
+3.904800E+01,-2.664103E+01
+3.905600E+01,-2.976923E+01
+3.906400E+01,-2.852564E+01
+3.907200E+01,-2.575641E+01
+3.908000E+01,-2.678205E+01
+3.908800E+01,-3.161538E+01
+3.909600E+01,-3.547436E+01
+3.910400E+01,-3.561538E+01
+3.911200E+01,-3.425641E+01
+3.912000E+01,-3.467949E+01
+3.912800E+01,-3.630769E+01
+3.913600E+01,-3.579487E+01
+3.914400E+01,-3.271795E+01
+3.915200E+01,-3.041026E+01
+3.916000E+01,-3.274359E+01
+3.916800E+01,-3.816667E+01
+3.917600E+01,-4.008974E+01
+3.918400E+01,-3.471795E+01
+3.919200E+01,-2.906410E+01
+3.920000E+01,-2.567949E+01
+3.920800E+01,-2.306410E+01
+3.921600E+01,-1.255128E+01
+3.922400E+01,+4.179487E+00
+3.923200E+01,+2.029487E+01
+3.924000E+01,+2.819231E+01
+3.924800E+01,+2.580769E+01
+3.925600E+01,+1.633333E+01
+3.926400E+01,+3.794872E+00
+3.927200E+01,-9.320513E+00
+3.928000E+01,-2.117949E+01
+3.928800E+01,-2.897436E+01
+3.929600E+01,-3.202564E+01
+3.930400E+01,-3.337179E+01
+3.931200E+01,-3.525641E+01
+3.932000E+01,-3.557692E+01
+3.932800E+01,-3.120513E+01
+3.933600E+01,-2.829487E+01
+3.934400E+01,-4.321795E+01
+3.935200E+01,-7.715385E+01
+3.936000E+01,-8.498718E+01
+3.936800E+01,-4.628205E+00
+3.937600E+01,+1.544872E+02
+3.938400E+01,+2.784231E+02
+3.939200E+01,+2.506538E+02
+3.940000E+01,+8.474359E+01
+3.940800E+01,-8.676923E+01
+3.941600E+01,-1.535513E+02
+3.942400E+01,-1.222949E+02
+3.943200E+01,-6.864103E+01
+3.944000E+01,-4.111538E+01
+3.944800E+01,-3.655128E+01
+3.945600E+01,-3.546154E+01
+3.946400E+01,-3.023077E+01
+3.947200E+01,-2.214103E+01
+3.948000E+01,-1.338462E+01
+3.948800E+01,-6.307692E+00
+3.949600E+01,-1.461538E+00
+3.950400E+01,+2.051282E+00
+3.951200E+01,+5.961538E+00
+3.952000E+01,+1.183333E+01
+3.952800E+01,+1.791026E+01
+3.953600E+01,+2.360256E+01
+3.954400E+01,+2.830769E+01
+3.955200E+01,+3.412821E+01
+3.956000E+01,+4.120513E+01
+3.956800E+01,+4.958974E+01
+3.957600E+01,+5.721795E+01
+3.958400E+01,+6.255128E+01
+3.959200E+01,+6.566667E+01
+3.960000E+01,+6.762821E+01
+3.960800E+01,+6.980769E+01
+3.961600E+01,+7.216667E+01
+3.962400E+01,+7.406410E+01
+3.963200E+01,+7.429487E+01
+3.964000E+01,+7.232051E+01
+3.964800E+01,+6.937179E+01
+3.965600E+01,+6.546154E+01
+3.966400E+01,+5.897436E+01
+3.967200E+01,+4.817949E+01
+3.968000E+01,+3.271795E+01
+3.968800E+01,+1.484615E+01
+3.969600E+01,-7.948718E-01
+3.970400E+01,-1.005128E+01
+3.971200E+01,-1.256410E+01
+3.972000E+01,-1.294872E+01
+3.972800E+01,-1.458974E+01
+3.973600E+01,-1.647436E+01
+3.974400E+01,-1.724359E+01
+3.975200E+01,-1.732051E+01
+3.976000E+01,-1.830769E+01
+3.976800E+01,-1.944872E+01
+3.977600E+01,-1.971795E+01
+3.978400E+01,-2.039744E+01
+3.979200E+01,-2.189744E+01
+3.980000E+01,-2.294872E+01
+3.980800E+01,-2.219231E+01
+3.981600E+01,-2.062821E+01
+3.982400E+01,-2.148718E+01
+3.983200E+01,-2.534615E+01
+3.984000E+01,-2.948718E+01
+3.984800E+01,-2.871795E+01
+3.985600E+01,-2.616667E+01
+3.986400E+01,-2.382051E+01
+3.987200E+01,-2.467949E+01
+3.988000E+01,-2.619231E+01
+3.988800E+01,-2.834615E+01
+3.989600E+01,-3.105128E+01
+3.990400E+01,-3.264103E+01
+3.991200E+01,-3.244872E+01
+3.992000E+01,-3.033333E+01
+3.992800E+01,-2.642308E+01
+3.993600E+01,-2.225641E+01
+3.994400E+01,-1.885897E+01
+3.995200E+01,-1.432051E+01
+3.996000E+01,-6.051282E+00
+3.996800E+01,+4.884615E+00
+3.997600E+01,+1.341026E+01
+3.998400E+01,+1.734615E+01
+3.999200E+01,+1.762821E+01
+4.000000E+01,+1.342308E+01
+4.000800E+01,+2.474359E+00
+4.001600E+01,-1.267949E+01
+4.002400E+01,-2.412821E+01
+4.003200E+01,-2.758974E+01
+4.004000E+01,-2.791026E+01
+4.004800E+01,-3.115385E+01
+4.005600E+01,-3.523077E+01
+4.006400E+01,-3.315385E+01
+4.007200E+01,-2.538462E+01
+4.008000E+01,-2.720513E+01
+4.008800E+01,-5.161538E+01
+4.009600E+01,-7.225641E+01
+4.010400E+01,-2.619231E+01
+4.011200E+01,+1.108462E+02
+4.012000E+01,+2.571923E+02
+4.012800E+01,+2.829872E+02
+4.013600E+01,+1.517821E+02
+4.014400E+01,-3.279487E+01
+4.015200E+01,-1.386923E+02
+4.016000E+01,-1.336667E+02
+4.016800E+01,-8.079487E+01
+4.017600E+01,-4.278205E+01
+4.018400E+01,-3.117949E+01
+4.019200E+01,-2.714103E+01
+4.020000E+01,-2.002564E+01
+4.020800E+01,-1.064103E+01
+4.021600E+01,-2.602564E+00
+4.022400E+01,+1.615385E+00
+4.023200E+01,+2.820513E+00
+4.024000E+01,+4.448718E+00
+4.024800E+01,+9.871795E+00
+4.025600E+01,+1.850000E+01
+4.026400E+01,+2.588462E+01
+4.027200E+01,+2.847436E+01
+4.028000E+01,+2.932051E+01
+4.028800E+01,+3.434615E+01
+4.029600E+01,+4.452564E+01
+4.030400E+01,+5.546154E+01
+4.031200E+01,+6.319231E+01
+4.032000E+01,+6.855128E+01
+4.032800E+01,+7.380769E+01
+4.033600E+01,+7.820513E+01
+4.034400E+01,+7.976923E+01
+4.035200E+01,+7.885897E+01
+4.036000E+01,+7.808974E+01
+4.036800E+01,+7.848718E+01
+4.037600E+01,+7.812821E+01
+4.038400E+01,+7.496154E+01
+4.039200E+01,+6.898718E+01
+4.040000E+01,+6.029487E+01
+4.040800E+01,+4.783333E+01
+4.041600E+01,+3.243590E+01
+4.042400E+01,+1.747436E+01
+4.043200E+01,+6.051282E+00
+4.044000E+01,-2.884615E+00
+4.044800E+01,-1.078205E+01
+4.045600E+01,-1.723077E+01
+4.046400E+01,-2.166667E+01
+4.047200E+01,-2.400000E+01
+4.048000E+01,-2.457692E+01
+4.048800E+01,-2.257692E+01
+4.049600E+01,-1.975641E+01
+4.050400E+01,-1.966667E+01
+4.051200E+01,-2.198718E+01
+4.052000E+01,-2.379487E+01
+4.052800E+01,-2.439744E+01
+4.053600E+01,-2.455128E+01
+4.054400E+01,-2.432051E+01
+4.055200E+01,-2.174359E+01
+4.056000E+01,-1.883333E+01
+4.056800E+01,-2.035897E+01
+4.057600E+01,-2.841026E+01
+4.058400E+01,-3.880769E+01
+4.059200E+01,-4.564103E+01
+4.060000E+01,-4.530769E+01
+4.060800E+01,-3.953846E+01
+4.061600E+01,-3.242308E+01
+4.062400E+01,-2.597436E+01
+4.063200E+01,-2.165385E+01
+4.064000E+01,-1.839744E+01
+4.064800E+01,-1.252564E+01
+4.065600E+01,-2.192308E+00
+4.066400E+01,+9.243590E+00
+4.067200E+01,+1.382051E+01
+4.068000E+01,+8.474359E+00
+4.068800E+01,-1.987179E+00
+4.069600E+01,-1.244872E+01
+4.070400E+01,-2.134615E+01
+4.071200E+01,-2.973077E+01
+4.072000E+01,-3.611538E+01
+4.072800E+01,-3.905128E+01
+4.073600E+01,-4.100000E+01
+4.074400E+01,-4.264103E+01
+4.075200E+01,-4.161538E+01
+4.076000E+01,-3.901282E+01
+4.076800E+01,-4.715385E+01
+4.077600E+01,-7.023077E+01
+4.078400E+01,-6.975641E+01
+4.079200E+01,+9.102564E+00
+4.080000E+01,+1.561026E+02
+4.080800E+01,+2.652692E+02
+4.081600E+01,+2.319487E+02
+4.082400E+01,+7.517949E+01
+4.083200E+01,-8.034615E+01
+4.084000E+01,-1.377692E+02
+4.084800E+01,-1.057179E+02
+4.085600E+01,-6.033333E+01
+4.086400E+01,-3.735897E+01
+4.087200E+01,-3.637179E+01
+4.088000E+01,-3.220513E+01
+4.088800E+01,-2.541026E+01
+4.089600E+01,-1.800000E+01
+4.090400E+01,-1.260256E+01
+4.091200E+01,-7.987179E+00
+4.092000E+01,-2.717949E+00
+4.092800E+01,+1.166667E+00
+4.093600E+01,+2.064103E+00
+4.094400E+01,+3.423077E+00
+4.095200E+01,+9.576923E+00
+4.096000E+01,+1.971795E+01
+4.096800E+01,+2.944872E+01
+4.097600E+01,+3.717949E+01
+4.098400E+01,+4.430769E+01
+4.099200E+01,+5.129487E+01
+4.100000E+01,+5.638462E+01
+4.100800E+01,+5.975641E+01
+4.101600E+01,+6.387179E+01
+4.102400E+01,+6.932051E+01
+4.103200E+01,+7.379487E+01
+4.104000E+01,+7.437179E+01
+4.104800E+01,+7.158974E+01
+4.105600E+01,+6.747436E+01
+4.106400E+01,+6.385897E+01
+4.107200E+01,+6.061538E+01
+4.108000E+01,+5.607692E+01
+4.108800E+01,+4.915385E+01
+4.109600E+01,+3.806410E+01
+4.110400E+01,+2.232051E+01
+4.111200E+01,+3.602564E+00
+4.112000E+01,-1.396154E+01
+4.112800E+01,-2.553846E+01
+4.113600E+01,-3.089744E+01
+4.114400E+01,-3.311538E+01
+4.115200E+01,-3.426923E+01
+4.116000E+01,-3.429487E+01
+4.116800E+01,-3.257692E+01
+4.117600E+01,-3.047436E+01
+4.118400E+01,-2.642308E+01
+4.119200E+01,-2.308974E+01
+4.120000E+01,-2.293590E+01
+4.120800E+01,-2.847436E+01
+4.121600E+01,-3.348718E+01
+4.122400E+01,-3.296154E+01
+4.123200E+01,-2.953846E+01
+4.124000E+01,-2.879487E+01
+4.124800E+01,-3.246154E+01
+4.125600E+01,-3.642308E+01
+4.126400E+01,-3.634615E+01
+4.127200E+01,-3.221795E+01
+4.128000E+01,-2.793590E+01
+4.128800E+01,-2.793590E+01
+4.129600E+01,-3.146154E+01
+4.130400E+01,-3.135897E+01
+4.131200E+01,-2.341026E+01
+4.132000E+01,-1.121795E+01
+4.132800E+01,-1.807692E+00
+4.133600E+01,+2.346154E+00
+4.134400E+01,+3.025641E+00
+4.135200E+01,-5.897436E-01
+4.136000E+01,-9.666667E+00
+4.136800E+01,-2.169231E+01
+4.137600E+01,-3.229487E+01
+4.138400E+01,-3.942308E+01
+4.139200E+01,-4.356410E+01
+4.140000E+01,-4.510256E+01
+4.140800E+01,-4.417949E+01
+4.141600E+01,-4.084615E+01
+4.142400E+01,-3.576923E+01
+4.143200E+01,-3.616667E+01
+4.144000E+01,-5.384615E+01
+4.144800E+01,-7.802564E+01
+4.145600E+01,-5.730769E+01
+4.146400E+01,+5.141026E+01
+4.147200E+01,+2.035897E+02
+4.148000E+01,+2.768974E+02
+4.148800E+01,+1.957564E+02
+4.149600E+01,+2.183333E+01
+4.150400E+01,-1.120513E+02
+4.151200E+01,-1.384615E+02
+4.152000E+01,-9.665385E+01
+4.152800E+01,-5.628205E+01
+4.153600E+01,-4.089744E+01
+4.154400E+01,-3.885897E+01
+4.155200E+01,-3.406410E+01
+4.156000E+01,-2.666667E+01
+4.156800E+01,-1.775641E+01
+4.157600E+01,-1.094872E+01
+4.158400E+01,-8.243590E+00
+4.159200E+01,-8.692308E+00
+4.160000E+01,-9.038462E+00
+4.160800E+01,-7.000000E+00
+4.161600E+01,-1.974359E+00
+4.162400E+01,+5.948718E+00
+4.163200E+01,+1.480769E+01
+4.164000E+01,+2.274359E+01
+4.164800E+01,+2.983333E+01
+4.165600E+01,+3.797436E+01
+4.166400E+01,+4.676923E+01
+4.167200E+01,+5.276923E+01
+4.168000E+01,+5.543590E+01
+4.168800E+01,+5.732051E+01
+4.169600E+01,+5.991026E+01
+4.170400E+01,+6.225641E+01
+4.171200E+01,+6.276923E+01
+4.172000E+01,+6.198718E+01
+4.172800E+01,+6.071795E+01
+4.173600E+01,+5.970513E+01
+4.174400E+01,+5.850000E+01
+4.175200E+01,+5.273077E+01
+4.176000E+01,+3.847436E+01
+4.176800E+01,+1.805128E+01
+4.177600E+01,-4.230769E-01
+4.178400E+01,-1.173077E+01
+4.179200E+01,-1.834615E+01
+4.180000E+01,-2.312821E+01
+4.180800E+01,-2.561538E+01
+4.181600E+01,-2.580769E+01
+4.182400E+01,-2.651282E+01
+4.183200E+01,-2.951282E+01
+4.184000E+01,-3.173077E+01
+4.184800E+01,-2.971795E+01
+4.185600E+01,-2.907692E+01
+4.186400E+01,-3.210256E+01
+4.187200E+01,-3.707692E+01
+4.188000E+01,-3.658974E+01
+4.188800E+01,-3.221795E+01
+4.189600E+01,-2.925641E+01
+4.190400E+01,-3.030769E+01
+4.191200E+01,-3.267949E+01
+4.192000E+01,-3.285897E+01
+4.192800E+01,-3.121795E+01
+4.193600E+01,-3.061538E+01
+4.194400E+01,-3.235897E+01
+4.195200E+01,-3.500000E+01
+4.196000E+01,-3.638462E+01
+4.196800E+01,-3.533333E+01
+4.197600E+01,-3.064103E+01
+4.198400E+01,-2.201282E+01
+4.199200E+01,-1.158974E+01
+4.200000E+01,-2.051282E+00
+4.200800E+01,+4.948718E+00
+4.201600E+01,+7.205128E+00
+4.202400E+01,+1.474359E+00
+4.203200E+01,-1.287179E+01
+4.204000E+01,-2.941026E+01
+4.204800E+01,-4.005128E+01
+4.205600E+01,-4.284615E+01
+4.206400E+01,-4.187179E+01
+4.207200E+01,-4.229487E+01
+4.208000E+01,-4.360256E+01
+4.208800E+01,-4.269231E+01
+4.209600E+01,-3.984615E+01
+4.210400E+01,-4.414103E+01
+4.211200E+01,-6.651282E+01
+4.212000E+01,-8.656410E+01
+4.212800E+01,-4.761538E+01
+4.213600E+01,+7.984615E+01
+4.214400E+01,+2.279359E+02
+4.215200E+01,+2.701667E+02
+4.216000E+01,+1.592564E+02
+4.216800E+01,-1.502564E+01
+4.217600E+01,-1.250641E+02
+4.218400E+01,-1.241282E+02
+4.219200E+01,-8.291026E+01
+4.220000E+01,-4.853846E+01
+4.220800E+01,-4.292308E+01
+4.221600E+01,-3.651282E+01
+4.222400E+01,-2.950000E+01
+4.223200E+01,-2.114103E+01
+4.224000E+01,-1.361538E+01
+4.224800E+01,-1.114103E+01
+4.225600E+01,-1.201282E+01
+4.226400E+01,-1.146154E+01
+4.227200E+01,-6.551282E+00
+4.228000E+01,+1.051282E+00
+4.228800E+01,+7.500000E+00
+4.229600E+01,+1.283333E+01
+4.230400E+01,+1.974359E+01
+4.231200E+01,+2.897436E+01
+4.232000E+01,+3.747436E+01
+4.232800E+01,+4.250000E+01
+4.233600E+01,+4.591026E+01
+4.234400E+01,+5.025641E+01
+4.235200E+01,+5.487179E+01
+4.236000E+01,+5.780769E+01
+4.236800E+01,+5.928205E+01
+4.237600E+01,+6.126923E+01
+4.238400E+01,+6.373077E+01
+4.239200E+01,+6.417949E+01
+4.240000E+01,+6.273077E+01
+4.240800E+01,+6.112821E+01
+4.241600E+01,+5.871795E+01
+4.242400E+01,+5.134615E+01
+4.243200E+01,+3.647436E+01
+4.244000E+01,+1.866667E+01
+4.244800E+01,+4.615385E+00
+4.245600E+01,-3.333333E+00
+4.246400E+01,-7.615385E+00
+4.247200E+01,-1.180769E+01
+4.248000E+01,-1.669231E+01
+4.248800E+01,-2.142308E+01
+4.249600E+01,-2.425641E+01
+4.250400E+01,-2.396154E+01
+4.251200E+01,-2.284615E+01
+4.252000E+01,-2.433333E+01
+4.252800E+01,-2.606410E+01
+4.253600E+01,-2.630769E+01
+4.254400E+01,-2.479487E+01
+4.255200E+01,-2.573077E+01
+4.256000E+01,-2.747436E+01
+4.256800E+01,-2.844872E+01
+4.257600E+01,-2.853846E+01
+4.258400E+01,-2.876923E+01
+4.259200E+01,-2.950000E+01
+4.260000E+01,-3.062821E+01
+4.260800E+01,-3.300000E+01
+4.261600E+01,-3.470513E+01
+4.262400E+01,-3.397436E+01
+4.263200E+01,-3.207692E+01
+4.264000E+01,-3.166667E+01
+4.264800E+01,-3.305128E+01
+4.265600E+01,-3.248718E+01
+4.266400E+01,-2.776923E+01
+4.267200E+01,-1.960256E+01
+4.268000E+01,-9.743590E+00
+4.268800E+01,-6.153846E-01
+4.269600E+01,+6.692308E+00
+4.270400E+01,+1.225641E+01
+4.271200E+01,+1.641026E+01
+4.272000E+01,+1.629487E+01
+4.272800E+01,+6.448718E+00
+4.273600E+01,-1.317949E+01
+4.274400E+01,-3.400000E+01
+4.275200E+01,-4.615385E+01
+4.276000E+01,-4.692308E+01
+4.276800E+01,-4.328205E+01
+4.277600E+01,-4.206410E+01
+4.278400E+01,-4.176923E+01
+4.279200E+01,-3.766667E+01
+4.280000E+01,-3.443590E+01
+4.280800E+01,-4.820513E+01
+4.281600E+01,-7.502564E+01
+4.282400E+01,-6.392308E+01
+4.283200E+01,+3.632051E+01
+4.284000E+01,+1.918590E+02
+4.284800E+01,+1.969744E+02
+4.285600E+01,+6.855128E+01
+4.286400E+01,-1.086667E+02
+4.287200E+01,-1.436154E+02
+4.288000E+01,-1.015897E+02
+4.288800E+01,-5.694872E+01
+4.289600E+01,-4.051282E+01
+4.290400E+01,-3.915385E+01
+4.291200E+01,-3.579487E+01
+4.292000E+01,-2.961538E+01
+4.292800E+01,-2.452564E+01
+4.293600E+01,-1.955128E+01
+4.294400E+01,-1.362821E+01
+4.295200E+01,-7.423077E+00
+4.296000E+01,-3.000000E+00
+4.296800E+01,-1.666667E-01
+4.297600E+01,+4.474359E+00
+4.298400E+01,+1.115385E+01
+4.299200E+01,+1.742308E+01
+4.300000E+01,+2.126923E+01
+4.300800E+01,+2.319231E+01
+4.301600E+01,+2.657692E+01
+4.302400E+01,+3.433333E+01
+4.303200E+01,+4.608974E+01
+4.304000E+01,+5.643590E+01
+4.304800E+01,+5.976923E+01
+4.305600E+01,+5.810256E+01
+4.306400E+01,+5.706410E+01
+4.307200E+01,+5.883333E+01
+4.308000E+01,+6.026923E+01
+4.308800E+01,+5.860256E+01
+4.309600E+01,+5.671795E+01
+4.310400E+01,+5.720513E+01
+4.311200E+01,+5.837179E+01
+4.312000E+01,+5.551282E+01
+4.312800E+01,+4.530769E+01
+4.313600E+01,+3.003846E+01
+4.314400E+01,+1.441026E+01
+4.315200E+01,+2.051282E+00
+4.316000E+01,-7.525641E+00
+4.316800E+01,-1.635897E+01
+4.317600E+01,-2.370513E+01
+4.318400E+01,-2.898718E+01
+4.319200E+01,-3.117949E+01
+4.320000E+01,-3.188462E+01
+4.320800E+01,-3.098718E+01
+4.321600E+01,-2.956410E+01
+4.322400E+01,-2.823077E+01
+4.323200E+01,-2.741026E+01
+4.324000E+01,-2.758974E+01
+4.324800E+01,-2.884615E+01
+4.325600E+01,-2.962821E+01
+4.326400E+01,-2.883333E+01
+4.327200E+01,-2.805128E+01
+4.328000E+01,-2.967949E+01
+4.328800E+01,-3.312821E+01
+4.329600E+01,-3.505128E+01
+4.330400E+01,-3.475641E+01
+4.331200E+01,-3.465385E+01
+4.332000E+01,-3.571795E+01
+4.332800E+01,-3.621795E+01
+4.333600E+01,-3.462821E+01
+4.334400E+01,-3.296154E+01
+4.335200E+01,-3.375641E+01
+4.336000E+01,-3.629487E+01
+4.336800E+01,-3.766667E+01
+4.337600E+01,-3.585897E+01
+4.338400E+01,-3.280769E+01
+4.339200E+01,-3.106410E+01
+4.340000E+01,-2.961538E+01
+4.340800E+01,-2.466667E+01
+4.341600E+01,-1.371795E+01
+4.342400E+01,+5.128205E-02
+4.343200E+01,+1.110256E+01
+4.344000E+01,+1.605128E+01
+4.344800E+01,+1.370513E+01
+4.345600E+01,+4.820513E+00
+4.346400E+01,-7.935897E+00
+4.347200E+01,-2.050000E+01
+4.348000E+01,-2.964103E+01
+4.348800E+01,-3.602564E+01
+4.349600E+01,-4.043590E+01
+4.350400E+01,-4.317949E+01
+4.351200E+01,-4.264103E+01
+4.352000E+01,-3.744872E+01
+4.352800E+01,-3.529487E+01
+4.353600E+01,-5.071795E+01
+4.354400E+01,-7.983333E+01
+4.355200E+01,-7.082051E+01
+4.356000E+01,+3.003846E+01
+4.356800E+01,+1.904872E+02
+4.357600E+01,+2.848846E+02
+4.358400E+01,+2.186154E+02
+4.359200E+01,+4.111538E+01
+4.360000E+01,-1.085641E+02
+4.360800E+01,-1.470000E+02
+4.361600E+01,-1.065256E+02
+4.362400E+01,-6.044872E+01
+4.363200E+01,-3.965385E+01
+4.364000E+01,-3.414103E+01
+4.364800E+01,-3.097436E+01
+4.365600E+01,-2.837179E+01
+4.366400E+01,-2.661538E+01
+4.367200E+01,-2.343590E+01
+4.368000E+01,-1.893590E+01
+4.368800E+01,-1.425641E+01
+4.369600E+01,-9.653846E+00
+4.370400E+01,-4.782051E+00
+4.371200E+01,+1.358974E+00
+4.372000E+01,+8.525641E+00
+4.372800E+01,+1.547436E+01
+4.373600E+01,+2.130769E+01
+4.374400E+01,+2.585897E+01
+4.375200E+01,+3.025641E+01
+4.376000E+01,+3.570513E+01
+4.376800E+01,+4.175641E+01
+4.377600E+01,+4.794872E+01
+4.378400E+01,+5.355128E+01
+4.379200E+01,+5.852564E+01
+4.380000E+01,+6.220513E+01
+4.380800E+01,+6.278205E+01
+4.381600E+01,+6.143590E+01
+4.382400E+01,+6.079487E+01
+4.383200E+01,+6.164103E+01
+4.384000E+01,+6.182051E+01
+4.384800E+01,+5.537179E+01
+4.385600E+01,+4.539744E+01
+4.386400E+01,+3.226923E+01
+4.387200E+01,+1.980769E+01
+4.388000E+01,+6.653846E+00
+4.388800E+01,-4.320513E+00
+4.389600E+01,-1.284615E+01
+4.390400E+01,-1.998718E+01
+4.391200E+01,-2.550000E+01
+4.392000E+01,-2.823077E+01
+4.392800E+01,-2.789744E+01
+4.393600E+01,-2.726923E+01
+4.394400E+01,-2.800000E+01
+4.395200E+01,-2.844872E+01
+4.396000E+01,-2.700000E+01
+4.396800E+01,-2.406410E+01
+4.397600E+01,-2.276923E+01
+4.398400E+01,-2.521795E+01
+4.399200E+01,-2.965385E+01
+4.400000E+01,-3.243590E+01
+4.400800E+01,-3.129487E+01
+4.401600E+01,-2.788462E+01
+4.402400E+01,-2.608974E+01
+4.403200E+01,-2.720513E+01
+4.404000E+01,-2.926923E+01
+4.404800E+01,-3.006410E+01
+4.405600E+01,-2.944872E+01
+4.406400E+01,-2.834615E+01
+4.407200E+01,-2.717949E+01
+4.408000E+01,-2.666667E+01
+4.408800E+01,-2.824359E+01
+4.409600E+01,-3.133333E+01
+4.410400E+01,-3.401282E+01
+4.411200E+01,-3.521795E+01
+4.412000E+01,-3.592308E+01
+4.412800E+01,-3.685897E+01
+4.413600E+01,-3.611538E+01
+4.414400E+01,-3.282051E+01
+4.415200E+01,-2.861538E+01
+4.416000E+01,-2.594872E+01
+4.416800E+01,-2.488462E+01
+4.417600E+01,-2.335897E+01
+4.418400E+01,-1.847436E+01
+4.419200E+01,-9.923077E+00
+4.420000E+01,+1.320513E+00
+4.420800E+01,+1.138462E+01
+4.421600E+01,+1.692308E+01
+4.422400E+01,+1.643590E+01
+4.423200E+01,+1.097436E+01
+4.424000E+01,+2.333333E+00
+4.424800E+01,-8.089744E+00
+4.425600E+01,-1.905128E+01
+4.426400E+01,-2.794872E+01
+4.427200E+01,-3.201282E+01
+4.428000E+01,-3.223077E+01
+4.428800E+01,-3.256410E+01
+4.429600E+01,-3.335897E+01
+4.430400E+01,-3.142308E+01
+4.431200E+01,-3.088462E+01
+4.432000E+01,-4.635897E+01
+4.432800E+01,-7.583333E+01
+4.433600E+01,-7.148718E+01
+4.434400E+01,+2.142308E+01
+4.435200E+01,+1.796538E+02
+4.436000E+01,+2.851154E+02
+4.436800E+01,+2.367051E+02
+4.437600E+01,+6.656410E+01
+4.438400E+01,-9.306410E+01
+4.439200E+01,-1.474872E+02
+4.440000E+01,-1.147821E+02
+4.440800E+01,-6.626923E+01
+4.441600E+01,-4.039744E+01
+4.442400E+01,-3.300000E+01
+4.443200E+01,-2.976923E+01
+4.444000E+01,-2.624359E+01
+4.444800E+01,-2.205128E+01
+4.445600E+01,-1.657692E+01
+4.446400E+01,-1.148718E+01
+4.447200E+01,-6.846154E+00
+4.448000E+01,-2.756410E+00
+4.448800E+01,+1.282051E-02
+4.449600E+01,+2.897436E+00
+4.450400E+01,+7.628205E+00
+4.451200E+01,+1.308974E+01
+4.452000E+01,+1.762821E+01
+4.452800E+01,+2.425641E+01
+4.453600E+01,+3.465385E+01
+4.454400E+01,+4.567949E+01
+4.455200E+01,+5.297436E+01
+4.456000E+01,+5.732051E+01
+4.456800E+01,+6.128205E+01
+4.457600E+01,+6.393590E+01
+4.458400E+01,+6.367949E+01
+4.459200E+01,+6.100000E+01
+4.460000E+01,+5.787179E+01
+4.460800E+01,+5.653846E+01
+4.461600E+01,+5.674359E+01
+4.462400E+01,+5.596154E+01
+4.463200E+01,+5.155128E+01
+4.464000E+01,+4.379487E+01
+4.464800E+01,+3.573077E+01
+4.465600E+01,+2.803846E+01
+4.466400E+01,+1.823077E+01
+4.467200E+01,+4.987179E+00
+4.468000E+01,-8.371795E+00
+4.468800E+01,-1.629487E+01
+4.469600E+01,-1.743590E+01
+4.470400E+01,-1.601282E+01
+4.471200E+01,-1.725641E+01
+4.472000E+01,-2.276923E+01
+4.472800E+01,-2.914103E+01
+4.473600E+01,-3.192308E+01
+4.474400E+01,-3.057692E+01
+4.475200E+01,-2.821795E+01
+4.476000E+01,-2.796154E+01
+4.476800E+01,-2.897436E+01
+4.477600E+01,-2.882051E+01
+4.478400E+01,-2.738462E+01
+4.479200E+01,-2.660256E+01
+4.480000E+01,-2.776923E+01
+4.480800E+01,-2.988462E+01
+4.481600E+01,-3.170513E+01
+4.482400E+01,-3.314103E+01
+4.483200E+01,-3.364103E+01
+4.484000E+01,-3.294872E+01
+4.484800E+01,-3.083333E+01
+4.485600E+01,-2.985897E+01
+4.486400E+01,-3.114103E+01
+4.487200E+01,-3.369231E+01
+4.488000E+01,-3.355128E+01
+4.488800E+01,-2.978205E+01
+4.489600E+01,-2.625641E+01
+4.490400E+01,-2.658974E+01
+4.491200E+01,-2.956410E+01
+4.492000E+01,-3.047436E+01
+4.492800E+01,-2.803846E+01
+4.493600E+01,-2.574359E+01
+4.494400E+01,-2.556410E+01
+4.495200E+01,-2.605128E+01
+4.496000E+01,-2.375641E+01
+4.496800E+01,-1.658974E+01
+4.497600E+01,-4.910256E+00
+4.498400E+01,+9.512821E+00
+4.499200E+01,+2.234615E+01
+4.500000E+01,+2.810256E+01
+4.500800E+01,+2.375641E+01
+4.501600E+01,+1.066667E+01
+4.502400E+01,-5.512821E+00
+4.503200E+01,-1.897436E+01
+4.504000E+01,-2.774359E+01
+4.504800E+01,-3.308974E+01
+4.505600E+01,-3.717949E+01
+4.506400E+01,-4.078205E+01
+4.507200E+01,-4.219231E+01
+4.508000E+01,-3.834615E+01
+4.508800E+01,-3.043590E+01
+4.509600E+01,-3.075641E+01
+4.510400E+01,-5.364103E+01
+4.511200E+01,-8.082051E+01
+4.512000E+01,-5.115385E+01
+4.512800E+01,+7.392308E+01
+4.513600E+01,+2.311923E+02
+4.514400E+01,+2.871410E+02
+4.515200E+01,+1.790128E+02
+4.516000E+01,-8.051282E+00
+4.516800E+01,-1.324744E+02
+4.517600E+01,-1.394744E+02
+4.518400E+01,-8.641026E+01
+4.519200E+01,-4.543590E+01
+4.520000E+01,-3.542308E+01
+4.520800E+01,-3.623077E+01
+4.521600E+01,-3.158974E+01
+4.522400E+01,-2.252564E+01
+4.523200E+01,-1.276923E+01
+4.524000E+01,-6.653846E+00
+4.524800E+01,-3.807692E+00
+4.525600E+01,-1.115385E+00
+4.526400E+01,+3.679487E+00
+4.527200E+01,+9.038462E+00
+4.528000E+01,+1.287179E+01
+4.528800E+01,+1.656410E+01
+4.529600E+01,+2.203846E+01
+4.530400E+01,+2.893590E+01
+4.531200E+01,+3.530769E+01
+4.532000E+01,+4.083333E+01
+4.532800E+01,+4.701282E+01
+4.533600E+01,+5.400000E+01
+4.534400E+01,+6.074359E+01
+4.535200E+01,+6.479487E+01
+4.536000E+01,+6.525641E+01
+4.536800E+01,+6.430769E+01
+4.537600E+01,+6.452564E+01
+4.538400E+01,+6.508974E+01
+4.539200E+01,+6.221795E+01
+4.540000E+01,+5.553846E+01
+4.540800E+01,+5.038462E+01
+4.541600E+01,+4.912821E+01
+4.542400E+01,+4.592308E+01
+4.543200E+01,+3.465385E+01
+4.544000E+01,+1.903846E+01
+4.544800E+01,+7.769231E+00
+4.545600E+01,+1.487179E+00
+4.546400E+01,-6.269231E+00
+4.547200E+01,-1.666667E+01
+4.548000E+01,-2.392308E+01
+4.548800E+01,-2.457692E+01
+4.549600E+01,-2.330769E+01
+4.550400E+01,-2.497436E+01
+4.551200E+01,-2.665385E+01
+4.552000E+01,-2.820513E+01
+4.552800E+01,-2.779487E+01
+4.553600E+01,-2.738462E+01
+4.554400E+01,-2.438462E+01
+4.555200E+01,-2.208974E+01
+4.556000E+01,-2.341026E+01
+4.556800E+01,-2.694872E+01
+4.557600E+01,-2.926923E+01
+4.558400E+01,-2.950000E+01
+4.559200E+01,-3.039744E+01
+4.560000E+01,-3.279487E+01
+4.560800E+01,-3.508974E+01
+4.561600E+01,-3.607692E+01
+4.562400E+01,-3.564103E+01
+4.563200E+01,-3.497436E+01
+4.564000E+01,-3.429487E+01
+4.564800E+01,-3.366667E+01
+4.565600E+01,-3.362821E+01
+4.566400E+01,-3.392308E+01
+4.567200E+01,-3.448718E+01
+4.568000E+01,-3.466667E+01
+4.568800E+01,-3.330769E+01
+4.569600E+01,-3.067949E+01
+4.570400E+01,-2.871795E+01
+4.571200E+01,-2.964103E+01
+4.572000E+01,-3.251282E+01
+4.572800E+01,-3.338462E+01
+4.573600E+01,-3.103846E+01
+4.574400E+01,-2.703846E+01
+4.575200E+01,-2.182051E+01
+4.576000E+01,-1.329487E+01
+4.576800E+01,-9.487179E-01
+4.577600E+01,+1.056410E+01
+4.578400E+01,+1.694872E+01
+4.579200E+01,+1.801282E+01
+4.580000E+01,+1.439744E+01
+4.580800E+01,+6.038462E+00
+4.581600E+01,-7.205128E+00
+4.582400E+01,-2.246154E+01
+4.583200E+01,-3.541026E+01
+4.584000E+01,-4.320513E+01
+4.584800E+01,-4.564103E+01
+4.585600E+01,-4.421795E+01
+4.586400E+01,-3.934615E+01
+4.587200E+01,-3.641026E+01
+4.588000E+01,-4.837179E+01
+4.588800E+01,-7.507692E+01
+4.589600E+01,-6.984615E+01
+4.590400E+01,+2.416667E+01
+4.591200E+01,+1.829487E+02
+4.592000E+01,+2.825256E+02
+4.592800E+01,+2.197564E+02
