+5.051000E+00,-6.676000E-12
+5.061000E+00,-6.694000E-12
+5.071000E+00,-6.682000E-12
+5.081000E+00,-6.685000E-12
+5.091000E+00,-6.684000E-12
+5.101000E+00,-6.683000E-12
+5.111000E+00,-6.683000E-12
+5.121000E+00,-6.687000E-12
+5.131000E+00,-6.681000E-12
+5.141000E+00,-6.688000E-12
+5.151000E+00,-6.674000E-12
+5.161000E+00,-6.685000E-12
+5.171000E+00,-6.678000E-12
+5.181000E+00,-6.679000E-12
+5.191000E+00,-6.672000E-12
+5.201000E+00,-6.680000E-12
+5.211000E+00,-6.677000E-12
+5.221000E+00,-6.680000E-12
+5.231000E+00,-6.678000E-12
+5.241000E+00,-6.688000E-12
+5.251000E+00,-6.685000E-12
+5.261000E+00,-6.685000E-12
+5.271000E+00,-6.677000E-12
+5.281000E+00,-6.677000E-12
+5.291000E+00,-6.680000E-12
+5.301000E+00,-6.678000E-12
+5.311000E+00,-6.679000E-12
+5.321000E+00,-6.679000E-12
+5.331000E+00,-6.679000E-12
+5.341000E+00,-6.677000E-12
+5.351000E+00,-6.680000E-12
+5.361000E+00,-6.677000E-12
+5.371000E+00,-6.680000E-12
+5.381000E+00,-6.672000E-12
+5.391000E+00,-6.676000E-12
+5.401000E+00,-6.674000E-12
+5.411000E+00,-6.674000E-12
+5.421000E+00,-6.679000E-12
+5.431000E+00,-6.671000E-12
+5.441000E+00,-6.678000E-12
+5.451000E+00,-6.671000E-12
+5.461000E+00,-6.680000E-12
+5.471000E+00,-6.669000E-12
+5.481000E+00,-6.676000E-12
+5.491000E+00,-6.664000E-12
+5.501000E+00,-6.668000E-12
+5.511000E+00,-6.653000E-12
+5.521000E+00,-6.661000E-12
+5.531000E+00,-6.651000E-12
+5.541000E+00,-6.661000E-12
+5.551000E+00,-6.650000E-12
+5.561000E+00,-6.657000E-12
+5.571000E+00,-6.652000E-12
+5.581000E+00,-6.661000E-12
+5.591000E+00,-6.650000E-12
+5.601000E+00,-6.662000E-12
+5.611000E+00,-6.651000E-12
+5.621000E+00,-6.661000E-12
+5.631000E+00,-6.653000E-12
+5.641000E+00,-6.663000E-12
+5.651000E+00,-6.654000E-12
+5.661000E+00,-6.665000E-12
+5.671000E+00,-6.653000E-12
+5.681000E+00,-6.663000E-12
+5.691000E+00,-6.653000E-12
+5.701000E+00,-6.667000E-12
+5.711000E+00,-6.654000E-12
+5.721000E+00,-6.665000E-12
+5.731000E+00,-6.653000E-12
+5.741000E+00,-6.665000E-12
+5.751000E+00,-6.653000E-12
+5.761000E+00,-6.663000E-12
+5.771000E+00,-6.652000E-12
+5.781000E+00,-6.663000E-12
+5.791000E+00,-6.652000E-12
+5.801000E+00,-6.659000E-12
+5.811000E+00,-6.651000E-12
+5.821000E+00,-6.656000E-12
+5.831000E+00,-6.652000E-12
+5.841000E+00,-6.658000E-12
+5.851000E+00,-6.622000E-12
+5.861000E+00,-6.636000E-12
+5.871000E+00,-6.630000E-12
+5.881000E+00,-6.633000E-12
+5.891000E+00,-6.630000E-12
+5.901000E+00,-6.636000E-12
+5.911000E+00,-6.629000E-12
+5.921000E+00,-6.641000E-12
+5.931000E+00,-6.623000E-12
+5.941000E+00,-6.635000E-12
+5.951000E+00,-6.630000E-12
+5.961000E+00,-6.631000E-12
+5.971000E+00,-6.630000E-12
+5.981000E+00,-6.630000E-12
+5.991000E+00,-6.626000E-12
+6.001000E+00,-6.639000E-12
+6.011000E+00,-6.630000E-12
+6.021000E+00,-6.634000E-12
+6.031000E+00,-6.626000E-12
+6.041000E+00,-6.632000E-12
+6.051000E+00,-6.663000E-12
+6.061000E+00,-6.670000E-12
+6.071000E+00,-6.665000E-12
+6.081000E+00,-6.681000E-12
+6.091000E+00,-6.681000E-12
+6.101000E+00,-6.695000E-12
+6.111000E+00,-6.696000E-12
+6.121000E+00,-6.687000E-12
+6.131000E+00,-6.680000E-12
+6.141000E+00,-6.691000E-12
+6.151000E+00,-6.706000E-12
+6.161000E+00,-6.726000E-12
+6.171000E+00,-6.727000E-12
+6.181000E+00,-6.729000E-12
+6.191000E+00,-6.738000E-12
+6.201000E+00,-6.765000E-12
+6.211000E+00,-6.760000E-12
+6.221000E+00,-6.788000E-12
+6.231000E+00,-6.783000E-12
+6.241000E+00,-6.793000E-12
+6.251000E+00,-6.794000E-12
+6.261000E+00,-6.785000E-12
+6.271000E+00,-6.807000E-12
+6.281000E+00,-6.793000E-12
+6.291000E+00,-6.807000E-12
+6.301000E+00,-6.810000E-12
+6.311000E+00,-6.796000E-12
+6.321000E+00,-6.823000E-12
+6.331000E+00,-6.790000E-12
+6.341000E+00,-6.820000E-12
+6.351000E+00,-6.809000E-12
+6.361000E+00,-6.799000E-12
+6.371000E+00,-6.823000E-12
+6.381000E+00,-6.795000E-12
+6.391000E+00,-6.817000E-12
+6.401000E+00,-6.806000E-12
+6.411000E+00,-6.801000E-12
+6.421000E+00,-6.820000E-12
+6.431000E+00,-6.780000E-12
+6.441000E+00,-6.817000E-12
+6.451000E+00,-6.786000E-12
+6.461000E+00,-6.799000E-12
+6.471000E+00,-6.794000E-12
+6.481000E+00,-6.784000E-12
+6.491000E+00,-6.801000E-12
+6.501000E+00,-6.782000E-12
+6.511000E+00,-6.796000E-12
+6.521000E+00,-6.798000E-12
+6.531000E+00,-6.786000E-12
+6.541000E+00,-6.800000E-12
+6.551000E+00,-6.781000E-12
+6.561000E+00,-6.799000E-12
+6.571000E+00,-6.785000E-12
+6.581000E+00,-6.790000E-12
+6.591000E+00,-6.788000E-12
+6.601000E+00,-6.780000E-12
+6.611000E+00,-6.789000E-12
+6.621000E+00,-6.779000E-12
+6.631000E+00,-6.779000E-12
+6.641000E+00,-6.774000E-12
+6.651000E+00,-6.773000E-12
+6.661000E+00,-6.775000E-12
+6.671000E+00,-6.764000E-12
+6.681000E+00,-6.766000E-12
+6.691000E+00,-6.760000E-12
+6.701000E+00,-6.759000E-12
+6.711000E+00,-6.756000E-12
+6.721000E+00,-6.754000E-12
+6.731000E+00,-6.753000E-12
+6.741000E+00,-6.747000E-12
+6.751000E+00,-6.751000E-12
+6.761000E+00,-6.748000E-12
+6.771000E+00,-6.747000E-12
+6.781000E+00,-6.749000E-12
+6.791000E+00,-6.750000E-12
+6.801000E+00,-6.748000E-12
+6.811000E+00,-6.748000E-12
+6.821000E+00,-6.747000E-12
+6.831000E+00,-6.747000E-12
+6.841000E+00,-6.743000E-12
+6.851000E+00,-6.743000E-12
+6.861000E+00,-6.744000E-12
+6.871000E+00,-6.742000E-12
+6.881000E+00,-6.743000E-12
+6.891000E+00,-6.740000E-12
+6.901000E+00,-6.743000E-12
+6.911000E+00,-6.740000E-12
+6.921000E+00,-6.746000E-12
+6.931000E+00,-6.739000E-12
+6.941000E+00,-6.747000E-12
+6.951000E+00,-6.746000E-12
+6.961000E+00,-6.752000E-12
+6.971000E+00,-6.746000E-12
+6.981000E+00,-6.749000E-12
+6.991000E+00,-6.746000E-12
+7.001000E+00,-6.751000E-12
+7.011000E+00,-6.738000E-12
+7.021000E+00,-6.743000E-12
+7.031000E+00,-6.729000E-12
+7.041000E+00,-6.738000E-12
+7.051000E+00,-6.728000E-12
+7.061000E+00,-6.738000E-12
+7.071000E+00,-6.728000E-12
+7.081000E+00,-6.733000E-12
+7.091000E+00,-6.724000E-12
+7.101000E+00,-6.736000E-12
+7.111000E+00,-6.727000E-12
+7.121000E+00,-6.738000E-12
+7.131000E+00,-6.724000E-12
+7.141000E+00,-6.740000E-12
+7.151000E+00,-6.728000E-12
+7.161000E+00,-6.737000E-12
+7.171000E+00,-6.726000E-12
+7.181000E+00,-6.743000E-12
+7.191000E+00,-6.727000E-12
+7.201000E+00,-6.738000E-12
+7.211000E+00,-6.727000E-12
+7.221000E+00,-6.738000E-12
+7.231000E+00,-6.729000E-12
+7.241000E+00,-6.738000E-12
+7.251000E+00,-6.725000E-12
+7.261000E+00,-6.735000E-12
+7.271000E+00,-6.722000E-12
+7.281000E+00,-6.736000E-12
+7.291000E+00,-6.722000E-12
+7.301000E+00,-6.735000E-12
+7.311000E+00,-6.727000E-12
+7.321000E+00,-6.737000E-12
+7.331000E+00,-6.723000E-12
+7.341000E+00,-6.734000E-12
+7.351000E+00,-6.721000E-12
+7.361000E+00,-6.726000E-12
+7.371000E+00,-6.719000E-12
+7.381000E+00,-6.736000E-12
+7.391000E+00,-6.722000E-12
+7.401000E+00,-6.737000E-12
+7.411000E+00,-6.718000E-12
+7.421000E+00,-6.732000E-12
+7.431000E+00,-6.723000E-12
+7.441000E+00,-6.737000E-12
+7.451000E+00,-6.724000E-12
+7.461000E+00,-6.733000E-12
+7.471000E+00,-6.728000E-12
+7.481000E+00,-6.739000E-12
+7.491000E+00,-6.718000E-12
+7.501000E+00,-6.734000E-12
+7.511000E+00,-6.722000E-12
+7.521000E+00,-6.732000E-12
+7.531000E+00,-6.723000E-12
+7.541000E+00,-6.736000E-12
+7.551000E+00,-6.726000E-12
+7.561000E+00,-6.733000E-12
+7.571000E+00,-6.718000E-12
+7.581000E+00,-6.733000E-12
+7.591000E+00,-6.723000E-12
+7.601000E+00,-6.729000E-12
+7.611000E+00,-6.722000E-12
+7.621000E+00,-6.727000E-12
+7.631000E+00,-6.718000E-12
+7.641000E+00,-6.727000E-12
+7.651000E+00,-6.725000E-12
+7.661000E+00,-6.727000E-12
+7.671000E+00,-6.724000E-12
+7.681000E+00,-6.727000E-12
+7.691000E+00,-6.721000E-12
+7.701000E+00,-6.726000E-12
+7.711000E+00,-6.723000E-12
+7.721000E+00,-6.732000E-12
+7.731000E+00,-6.723000E-12
+7.741000E+00,-6.732000E-12
+7.751000E+00,-6.718000E-12
+7.761000E+00,-6.733000E-12
+7.771000E+00,-6.717000E-12
+7.781000E+00,-6.735000E-12
+7.791000E+00,-6.723000E-12
+7.801000E+00,-6.725000E-12
+7.811000E+00,-6.732000E-12
+7.821000E+00,-6.717000E-12
+7.831000E+00,-6.734000E-12
+7.841000E+00,-6.727000E-12
+7.851000E+00,-6.727000E-12
+7.861000E+00,-6.734000E-12
+7.871000E+00,-6.716000E-12
+7.881000E+00,-6.742000E-12
+7.891000E+00,-6.706000E-12
+7.901000E+00,-6.732000E-12
+7.911000E+00,-6.708000E-12
+7.921000E+00,-6.720000E-12
+7.931000E+00,-6.709000E-12
+7.941000E+00,-6.709000E-12
+7.951000E+00,-6.719000E-12
+7.961000E+00,-6.703000E-12
+7.971000E+00,-6.725000E-12
+7.981000E+00,-6.698000E-12
+7.991000E+00,-6.735000E-12
+8.001000E+00,-6.704000E-12
+8.011000E+00,-6.722000E-12
+8.021000E+00,-6.723000E-12
+8.031000E+00,-6.716000E-12
+8.041000E+00,-6.728000E-12
+8.051000E+00,-6.707000E-12
+8.061000E+00,-6.736000E-12
+8.071000E+00,-6.698000E-12
+8.081000E+00,-6.731000E-12
+8.091000E+00,-6.703000E-12
+8.101000E+00,-6.717000E-12
+8.111000E+00,-6.718000E-12
+8.121000E+00,-6.714000E-12
+8.131000E+00,-6.720000E-12
+8.141000E+00,-6.704000E-12
+8.151000E+00,-6.725000E-12
+8.161000E+00,-6.708000E-12
+8.171000E+00,-6.720000E-12
+8.181000E+00,-6.711000E-12
+8.191000E+00,-6.722000E-12
+8.201000E+00,-6.722000E-12
+8.211000E+00,-6.719000E-12
+8.221000E+00,-6.715000E-12
+8.231000E+00,-6.719000E-12
+8.241000E+00,-6.709000E-12
+8.251000E+00,-6.719000E-12
+8.261000E+00,-6.708000E-12
+8.271000E+00,-6.716000E-12
+8.281000E+00,-6.708000E-12
+8.291000E+00,-6.711000E-12
+8.301000E+00,-6.713000E-12
+8.311000E+00,-6.712000E-12
+8.321000E+00,-6.715000E-12
+8.331000E+00,-6.710000E-12
+8.341000E+00,-6.714000E-12
+8.351000E+00,-6.711000E-12
+8.361000E+00,-6.711000E-12
+8.371000E+00,-6.710000E-12
+8.381000E+00,-6.709000E-12
+8.391000E+00,-6.705000E-12
+8.401000E+00,-6.711000E-12
+8.411000E+00,-6.709000E-12
+8.421000E+00,-6.711000E-12
+8.431000E+00,-6.711000E-12
+8.441000E+00,-6.714000E-12
+8.451000E+00,-6.709000E-12
+8.461000E+00,-6.714000E-12
+8.471000E+00,-6.708000E-12
+8.481000E+00,-6.716000E-12
+8.491000E+00,-6.706000E-12
+8.501000E+00,-6.713000E-12
+8.511000E+00,-6.706000E-12
+8.521000E+00,-6.714000E-12
+8.531000E+00,-6.708000E-12
+8.541000E+00,-6.716000E-12
+8.551000E+00,-6.707000E-12
+8.561000E+00,-6.714000E-12
+8.571000E+00,-6.706000E-12
+8.581000E+00,-6.718000E-12
+8.591000E+00,-6.702000E-12
+8.601000E+00,-6.713000E-12
+8.611000E+00,-6.701000E-12
+8.621000E+00,-6.717000E-12
+8.631000E+00,-6.703000E-12
+8.641000E+00,-6.716000E-12
+8.651000E+00,-6.704000E-12
+8.661000E+00,-6.714000E-12
+8.671000E+00,-6.700000E-12
+8.681000E+00,-6.713000E-12
+8.691000E+00,-6.701000E-12
+8.701000E+00,-6.713000E-12
+8.711000E+00,-6.702000E-12
+8.721000E+00,-6.714000E-12
+8.731000E+00,-6.702000E-12
+8.741000E+00,-6.710000E-12
+8.751000E+00,-6.697000E-12
+8.761000E+00,-6.716000E-12
+8.771000E+00,-6.699000E-12
+8.781000E+00,-6.711000E-12
+8.791000E+00,-6.702000E-12
+8.801000E+00,-6.720000E-12
+8.811000E+00,-6.708000E-12
+8.821000E+00,-6.716000E-12
+8.831000E+00,-6.697000E-12
+8.841000E+00,-6.715000E-12
+8.851000E+00,-6.695000E-12
+8.861000E+00,-6.720000E-12
+8.871000E+00,-6.704000E-12
+8.881000E+00,-6.712000E-12
+8.891000E+00,-6.698000E-12
+8.901000E+00,-6.716000E-12
+8.911000E+00,-6.708000E-12
+8.921000E+00,-6.723000E-12
+8.931000E+00,-6.701000E-12
+8.941000E+00,-6.716000E-12
+8.951000E+00,-6.703000E-12
+8.961000E+00,-6.717000E-12
+8.971000E+00,-6.701000E-12
+8.981000E+00,-6.712000E-12
+8.991000E+00,-6.701000E-12
+9.001000E+00,-6.714000E-12
+9.011000E+00,-6.701000E-12
+9.021000E+00,-6.718000E-12
+9.031000E+00,-6.698000E-12
+9.041000E+00,-6.710000E-12
+9.051000E+00,-6.695000E-12
+9.061000E+00,-6.711000E-12
+9.071000E+00,-6.695000E-12
+9.081000E+00,-6.710000E-12
+9.091000E+00,-6.700000E-12
+9.101000E+00,-6.716000E-12
+9.111000E+00,-6.699000E-12
+9.121000E+00,-6.711000E-12
+9.131000E+00,-6.697000E-12
+9.141000E+00,-6.707000E-12
+9.151000E+00,-6.699000E-12
+9.161000E+00,-6.710000E-12
+9.171000E+00,-6.699000E-12
+9.181000E+00,-6.714000E-12
+9.191000E+00,-6.701000E-12
+9.201000E+00,-6.712000E-12
+9.211000E+00,-6.701000E-12
+9.221000E+00,-6.715000E-12
+9.231000E+00,-6.703000E-12
+9.241000E+00,-6.713000E-12
+9.251000E+00,-6.702000E-12
+9.261000E+00,-6.714000E-12
+9.271000E+00,-6.707000E-12
+9.281000E+00,-6.710000E-12
+9.291000E+00,-6.704000E-12
+9.301000E+00,-6.710000E-12
+9.311000E+00,-6.702000E-12
+9.321000E+00,-6.706000E-12
+9.331000E+00,-6.704000E-12
+9.341000E+00,-6.706000E-12
+9.351000E+00,-6.702000E-12
+9.361000E+00,-6.707000E-12
+9.371000E+00,-6.699000E-12
+9.381000E+00,-6.711000E-12
+9.391000E+00,-6.695000E-12
+9.401000E+00,-6.712000E-12
+9.411000E+00,-6.685000E-12
+9.421000E+00,-6.710000E-12
+9.431000E+00,-6.686000E-12
+9.441000E+00,-6.710000E-12
+9.451000E+00,-6.687000E-12
+9.461000E+00,-6.700000E-12
+9.471000E+00,-6.691000E-12
+9.481000E+00,-6.694000E-12
+9.491000E+00,-6.700000E-12
+9.501000E+00,-6.693000E-12
+9.511000E+00,-6.705000E-12
+9.521000E+00,-6.687000E-12
+9.531000E+00,-6.716000E-12
+9.541000E+00,-6.686000E-12
+9.551000E+00,-6.713000E-12
+9.561000E+00,-6.692000E-12
+9.571000E+00,-6.709000E-12
+9.581000E+00,-6.686000E-12
+9.591000E+00,-6.686000E-12
+9.601000E+00,-6.707000E-12
+9.611000E+00,-6.700000E-12
+9.621000E+00,-6.693000E-12
+9.631000E+00,-6.709000E-12
+9.641000E+00,-6.689000E-12
+9.651000E+00,-6.711000E-12
+9.661000E+00,-6.684000E-12
+9.671000E+00,-6.718000E-12
+9.681000E+00,-6.678000E-12
+9.691000E+00,-6.711000E-12
+9.701000E+00,-6.674000E-12
+9.711000E+00,-6.706000E-12
+9.721000E+00,-6.672000E-12
+9.731000E+00,-6.704000E-12
+9.741000E+00,-6.676000E-12
+9.751000E+00,-6.699000E-12
+9.761000E+00,-6.681000E-12
+9.771000E+00,-6.690000E-12
+9.781000E+00,-6.689000E-12
+9.791000E+00,-6.689000E-12
+9.801000E+00,-6.685000E-12
+9.811000E+00,-6.691000E-12
+9.821000E+00,-6.690000E-12
+9.831000E+00,-6.683000E-12
+9.841000E+00,-6.690000E-12
+9.851000E+00,-6.686000E-12
+9.861000E+00,-6.690000E-12
+9.871000E+00,-6.686000E-12
+9.881000E+00,-6.690000E-12
+9.891000E+00,-6.688000E-12
+9.901000E+00,-6.690000E-12
+9.911000E+00,-6.687000E-12
+9.921000E+00,-6.690000E-12
+9.931000E+00,-6.687000E-12
+9.941000E+00,-6.687000E-12
+9.951000E+00,-6.685000E-12
+9.961000E+00,-6.690000E-12
+9.971000E+00,-6.688000E-12
+9.981000E+00,-6.688000E-12
+9.991000E+00,-6.687000E-12
+1.000100E+01,-6.686000E-12
+1.001100E+01,-6.689000E-12
+1.002100E+01,-6.687000E-12
+1.003100E+01,-6.690000E-12
+1.004100E+01,-6.684000E-12
+1.005100E+01,-6.688000E-12
+1.006100E+01,-6.688000E-12
+1.007100E+01,-6.687000E-12
+1.008100E+01,-6.685000E-12
+1.009100E+01,-6.685000E-12
+1.010100E+01,-6.691000E-12
+1.011100E+01,-6.685000E-12
+1.012100E+01,-6.684000E-12
+1.013100E+01,-6.686000E-12
+1.014100E+01,-6.691000E-12
+1.015100E+01,-6.679000E-12
+1.016100E+01,-6.695000E-12
+1.017100E+01,-6.679000E-12
+1.018100E+01,-6.690000E-12
+1.019100E+01,-6.679000E-12
+1.020100E+01,-6.694000E-12
+1.021100E+01,-6.691000E-12
+1.022100E+01,-6.688000E-12
+1.023100E+01,-6.687000E-12
+1.024100E+01,-6.695000E-12
+1.025100E+01,-6.688000E-12
+1.026100E+01,-6.697000E-12
+1.027100E+01,-6.683000E-12
+1.028100E+01,-6.693000E-12
+1.029100E+01,-6.684000E-12
+1.030100E+01,-6.698000E-12
+1.031100E+01,-6.688000E-12
+1.032100E+01,-6.696000E-12
+1.033100E+01,-6.686000E-12
+1.034100E+01,-6.700000E-12
+1.035100E+01,-6.694000E-12
+1.036100E+01,-6.702000E-12
+1.037100E+01,-6.691000E-12
+1.038100E+01,-6.709000E-12
+1.039100E+01,-6.693000E-12
+1.040100E+01,-6.709000E-12
+1.041100E+01,-6.690000E-12
+1.042100E+01,-6.705000E-12
+1.043100E+01,-6.690000E-12
+1.044100E+01,-6.702000E-12
+1.045100E+01,-6.689000E-12
+1.046100E+01,-6.701000E-12
+1.047100E+01,-6.690000E-12
+1.048100E+01,-6.701000E-12
+1.049100E+01,-6.686000E-12
+1.050100E+01,-6.700000E-12
+1.051100E+01,-6.688000E-12
+1.052100E+01,-6.708000E-12
+1.053100E+01,-6.688000E-12
+1.054100E+01,-6.709000E-12
+1.055100E+01,-6.692000E-12
+1.056100E+01,-6.709000E-12
+1.057100E+01,-6.693000E-12
+1.058100E+01,-6.711000E-12
+1.059100E+01,-6.694000E-12
+1.060100E+01,-6.712000E-12
+1.061100E+01,-6.698000E-12
+1.062100E+01,-6.715000E-12
+1.063100E+01,-6.700000E-12
+1.064100E+01,-6.716000E-12
+1.065100E+01,-6.704000E-12
+1.066100E+01,-6.719000E-12
+1.067100E+01,-6.702000E-12
+1.068100E+01,-6.717000E-12
+1.069100E+01,-6.706000E-12
+1.070100E+01,-6.722000E-12
+1.071100E+01,-6.707000E-12
+1.072100E+01,-6.721000E-12
+1.073100E+01,-6.707000E-12
+1.074100E+01,-6.724000E-12
+1.075100E+01,-6.707000E-12
+1.076100E+01,-6.725000E-12
+1.077100E+01,-6.706000E-12
+1.078100E+01,-6.724000E-12
+1.079100E+01,-6.710000E-12
+1.080100E+01,-6.727000E-12
+1.081100E+01,-6.709000E-12
+1.082100E+01,-6.725000E-12
+1.083100E+01,-6.712000E-12
+1.084100E+01,-6.723000E-12
+1.085100E+01,-6.704000E-12
+1.086100E+01,-6.720000E-12
+1.087100E+01,-6.708000E-12
+1.088100E+01,-6.722000E-12
+1.089100E+01,-6.711000E-12
+1.090100E+01,-6.722000E-12
+1.091100E+01,-6.710000E-12
+1.092100E+01,-6.722000E-12
+1.093100E+01,-6.708000E-12
+1.094100E+01,-6.720000E-12
+1.095100E+01,-6.708000E-12
+1.096100E+01,-6.727000E-12
+1.097100E+01,-6.715000E-12
+1.098100E+01,-6.715000E-12
+1.099100E+01,-6.728000E-12
+1.100100E+01,-6.715000E-12
+1.101100E+01,-6.729000E-12
+1.102100E+01,-6.714000E-12
+1.103100E+01,-6.727000E-12
+1.104100E+01,-6.711000E-12
+1.105100E+01,-6.725000E-12
+1.106100E+01,-6.706000E-12
+1.107100E+01,-6.726000E-12
+1.108100E+01,-6.706000E-12
+1.109100E+01,-6.723000E-12
+1.110100E+01,-6.702000E-12
+1.111100E+01,-6.727000E-12
+1.112100E+01,-6.701000E-12
+1.113100E+01,-6.725000E-12
+1.114100E+01,-6.696000E-12
+1.115100E+01,-6.729000E-12
+1.116100E+01,-6.693000E-12
+1.117100E+01,-6.732000E-12
+1.118100E+01,-6.695000E-12
+1.119100E+01,-6.733000E-12
+1.120100E+01,-6.697000E-12
+1.121100E+01,-6.735000E-12
+1.122100E+01,-6.695000E-12
+1.123100E+01,-6.732000E-12
+1.124100E+01,-6.695000E-12
+1.125100E+01,-6.731000E-12
+1.126100E+01,-6.700000E-12
+1.127100E+01,-6.731000E-12
+1.128100E+01,-6.698000E-12
+1.129100E+01,-6.727000E-12
+1.130100E+01,-6.700000E-12
+1.131100E+01,-6.720000E-12
+1.132100E+01,-6.711000E-12
+1.133100E+01,-6.717000E-12
+1.134100E+01,-6.707000E-12
+1.135100E+01,-6.708000E-12
+1.136100E+01,-6.696000E-12
+1.137100E+01,-6.705000E-12
+1.138100E+01,-6.694000E-12
+1.139100E+01,-6.692000E-12
+1.140100E+01,-6.689000E-12
+1.141100E+01,-6.693000E-12
+1.142100E+01,-6.688000E-12
+1.143100E+01,-6.695000E-12
+1.144100E+01,-6.687000E-12
+1.145100E+01,-6.698000E-12
+1.146100E+01,-6.691000E-12
+1.147100E+01,-6.699000E-12
+1.148100E+01,-6.691000E-12
+1.149100E+01,-6.695000E-12
+1.150100E+01,-6.694000E-12
+1.151100E+01,-6.686000E-12
+1.152100E+01,-6.693000E-12
+1.153100E+01,-6.693000E-12
+1.154100E+01,-6.688000E-12
+1.155100E+01,-6.684000E-12
+1.156100E+01,-6.689000E-12
+1.157100E+01,-6.689000E-12
+1.158100E+01,-6.690000E-12
+1.159100E+01,-6.689000E-12
+1.160100E+01,-6.683000E-12
+1.161100E+01,-6.690000E-12
+1.162100E+01,-6.684000E-12
+1.163100E+01,-6.681000E-12
+1.164100E+01,-6.674000E-12
+1.165100E+01,-6.684000E-12
+1.166100E+01,-6.683000E-12
+1.167100E+01,-6.685000E-12
+1.168100E+01,-6.678000E-12
+1.169100E+01,-6.674000E-12
+1.170100E+01,-6.680000E-12
+1.171100E+01,-6.679000E-12
+1.172100E+01,-6.677000E-12
+1.173100E+01,-6.680000E-12
+1.174100E+01,-6.658000E-12
+1.175100E+01,-6.651000E-12
+1.176100E+01,-6.652000E-12
+1.177100E+01,-6.649000E-12
+1.178100E+01,-6.651000E-12
+1.179100E+01,-6.645000E-12
+1.180100E+01,-6.648000E-12
+1.181100E+01,-6.642000E-12
+1.182100E+01,-6.653000E-12
+1.183100E+01,-6.646000E-12
+1.184100E+01,-6.653000E-12
+1.185100E+01,-6.647000E-12
+1.186100E+01,-6.653000E-12
+1.187100E+01,-6.645000E-12
+1.188100E+01,-6.657000E-12
+1.189100E+01,-6.645000E-12
+1.190100E+01,-6.658000E-12
+1.191100E+01,-6.646000E-12
+1.192100E+01,-6.660000E-12
+1.193100E+01,-6.648000E-12
+1.194100E+01,-6.657000E-12
+1.195100E+01,-6.642000E-12
+1.196100E+01,-6.657000E-12
+1.197100E+01,-6.643000E-12
+1.198100E+01,-6.661000E-12
+1.199100E+01,-6.646000E-12
+1.200100E+01,-6.659000E-12
+1.201100E+01,-6.647000E-12
+1.202100E+01,-6.662000E-12
+1.203100E+01,-6.647000E-12
+1.204100E+01,-6.662000E-12
+1.205100E+01,-6.647000E-12
+1.206100E+01,-6.663000E-12
+1.207100E+01,-6.646000E-12
+1.208100E+01,-6.663000E-12
+1.209100E+01,-6.647000E-12
+1.210100E+01,-6.658000E-12
+1.211100E+01,-6.645000E-12
+1.212100E+01,-6.663000E-12
+1.213100E+01,-6.645000E-12
+1.214100E+01,-6.663000E-12
+1.215100E+01,-6.646000E-12
+1.216100E+01,-6.663000E-12
+1.217100E+01,-6.649000E-12
+1.218100E+01,-6.664000E-12
+1.219100E+01,-6.644000E-12
+1.220100E+01,-6.664000E-12
+1.221100E+01,-6.646000E-12
+1.222100E+01,-6.663000E-12
+1.223100E+01,-6.647000E-12
+1.224100E+01,-6.663000E-12
+1.225100E+01,-6.647000E-12
+1.226100E+01,-6.663000E-12
+1.227100E+01,-6.646000E-12
+1.228100E+01,-6.663000E-12
+1.229100E+01,-6.651000E-12
+1.230100E+01,-6.665000E-12
+1.231100E+01,-6.648000E-12
+1.232100E+01,-6.665000E-12
+1.233100E+01,-6.649000E-12
+1.234100E+01,-6.663000E-12
+1.235100E+01,-6.648000E-12
+1.236100E+01,-6.664000E-12
+1.237100E+01,-6.664000E-12
+1.238100E+01,-6.650000E-12
+1.239100E+01,-6.668000E-12
+1.240100E+01,-6.650000E-12
+1.241100E+01,-6.668000E-12
+1.242100E+01,-6.653000E-12
+1.243100E+01,-6.668000E-12
+1.244100E+01,-6.651000E-12
+1.245100E+01,-6.667000E-12
+1.246100E+01,-6.651000E-12
+1.247100E+01,-6.669000E-12
+1.248100E+01,-6.654000E-12
+1.249100E+01,-6.671000E-12
+1.250100E+01,-6.655000E-12
+1.251100E+01,-6.671000E-12
+1.252100E+01,-6.659000E-12
+1.253100E+01,-6.670000E-12
+1.254100E+01,-6.662000E-12
+1.255100E+01,-6.677000E-12
+1.256100E+01,-6.660000E-12
+1.257100E+01,-6.673000E-12
+1.258100E+01,-6.664000E-12
+1.259100E+01,-6.675000E-12
+1.260100E+01,-6.660000E-12
+1.261100E+01,-6.674000E-12
+1.262100E+01,-6.663000E-12
+1.263100E+01,-6.675000E-12
+1.264100E+01,-6.666000E-12
+1.265100E+01,-6.677000E-12
+1.266100E+01,-6.668000E-12
+1.267100E+01,-6.675000E-12
+1.268100E+01,-6.664000E-12
+1.269100E+01,-6.681000E-12
+1.270100E+01,-6.657000E-12
+1.271100E+01,-6.677000E-12
+1.272100E+01,-6.660000E-12
+1.273100E+01,-6.680000E-12
+1.274100E+01,-6.659000E-12
+1.275100E+01,-6.677000E-12
+1.276100E+01,-6.666000E-12
+1.277100E+01,-6.676000E-12
+1.278100E+01,-6.669000E-12
+1.279100E+01,-6.674000E-12
+1.280100E+01,-6.678000E-12
+1.281100E+01,-6.668000E-12
+1.282100E+01,-6.684000E-12
+1.283100E+01,-6.658000E-12
+1.284100E+01,-6.682000E-12
+1.285100E+01,-6.665000E-12
+1.286100E+01,-6.670000E-12
+1.287100E+01,-6.666000E-12
+1.288100E+01,-6.657000E-12
+1.289100E+01,-6.674000E-12
+1.290100E+01,-6.657000E-12
+1.291100E+01,-6.688000E-12
+1.292100E+01,-6.656000E-12
+1.293100E+01,-6.695000E-12
+1.294100E+01,-6.651000E-12
+1.295100E+01,-6.684000E-12
+1.296100E+01,-6.667000E-12
+1.297100E+01,-6.689000E-12
+1.298100E+01,-6.666000E-12
+1.299100E+01,-6.675000E-12
+1.300100E+01,-6.671000E-12
+1.301100E+01,-6.678000E-12
+1.302100E+01,-6.666000E-12
+1.303100E+01,-6.659000E-12
+1.304100E+01,-6.677000E-12
+1.305100E+01,-6.658000E-12
+1.306100E+01,-6.684000E-12
+1.307100E+01,-6.653000E-12
+1.308100E+01,-6.674000E-12
+1.309100E+01,-6.647000E-12
+1.310100E+01,-6.673000E-12
+1.311100E+01,-6.661000E-12
+1.312100E+01,-6.662000E-12
+1.313100E+01,-6.660000E-12
+1.314100E+01,-6.658000E-12
+1.315100E+01,-6.663000E-12
+1.316100E+01,-6.648000E-12
+1.317100E+01,-6.669000E-12
+1.318100E+01,-6.649000E-12
+1.319100E+01,-6.672000E-12
+1.320100E+01,-6.651000E-12
+1.321100E+01,-6.669000E-12
+1.322100E+01,-6.649000E-12
+1.323100E+01,-6.669000E-12
+1.324100E+01,-6.654000E-12
+1.325100E+01,-6.665000E-12
+1.326100E+01,-6.652000E-12
+1.327100E+01,-6.665000E-12
+1.328100E+01,-6.659000E-12
+1.329100E+01,-6.655000E-12
+1.330100E+01,-6.657000E-12
+1.331100E+01,-6.654000E-12
+1.332100E+01,-6.654000E-12
+1.333100E+01,-6.657000E-12
+1.334100E+01,-6.656000E-12
+1.335100E+01,-6.654000E-12
+1.336100E+01,-6.657000E-12
+1.337100E+01,-6.658000E-12
+1.338100E+01,-6.657000E-12
+1.339100E+01,-6.655000E-12
+1.340100E+01,-6.653000E-12
+1.341100E+01,-6.654000E-12
+1.342100E+01,-6.654000E-12
+1.343100E+01,-6.653000E-12
+1.344100E+01,-6.654000E-12
+1.345100E+01,-6.652000E-12
+1.346100E+01,-6.657000E-12
+1.347100E+01,-6.651000E-12
+1.348100E+01,-6.653000E-12
+1.349100E+01,-6.651000E-12
+1.350100E+01,-6.657000E-12
+1.351100E+01,-6.649000E-12
+1.352100E+01,-6.655000E-12
+1.353100E+01,-6.648000E-12
+1.354100E+01,-6.654000E-12
+1.355100E+01,-6.648000E-12
+1.356100E+01,-6.656000E-12
+1.357100E+01,-6.647000E-12
+1.358100E+01,-6.656000E-12
+1.359100E+01,-6.648000E-12
+1.360100E+01,-6.660000E-12
+1.361100E+01,-6.648000E-12
+1.362100E+01,-6.660000E-12
+1.363100E+01,-6.647000E-12
+1.364100E+01,-6.663000E-12
+1.365100E+01,-6.648000E-12
+1.366100E+01,-6.660000E-12
+1.367100E+01,-6.650000E-12
+1.368100E+01,-6.665000E-12
+1.369100E+01,-6.651000E-12
+1.370100E+01,-6.662000E-12
+1.371100E+01,-6.649000E-12
+1.372100E+01,-6.659000E-12
+1.373100E+01,-6.647000E-12
+1.374100E+01,-6.662000E-12
+1.375100E+01,-6.662000E-12
+1.376100E+01,-6.644000E-12
+1.377100E+01,-6.659000E-12
+1.378100E+01,-6.641000E-12
+1.379100E+01,-6.657000E-12
+1.380100E+01,-6.642000E-12
+1.381100E+01,-6.653000E-12
+1.382100E+01,-6.641000E-12
+1.383100E+01,-6.658000E-12
+1.384100E+01,-6.642000E-12
+1.385100E+01,-6.662000E-12
+1.386100E+01,-6.642000E-12
+1.387100E+01,-6.661000E-12
+1.388100E+01,-6.643000E-12
+1.389100E+01,-6.659000E-12
+1.390100E+01,-6.641000E-12
+1.391100E+01,-6.658000E-12
+1.392100E+01,-6.643000E-12
+1.393100E+01,-6.658000E-12
+1.394100E+01,-6.651000E-12
+1.395100E+01,-6.672000E-12
+1.396100E+01,-6.658000E-12
+1.397100E+01,-6.673000E-12
+1.398100E+01,-6.661000E-12
+1.399100E+01,-6.679000E-12
+1.400100E+01,-6.664000E-12
+1.401100E+01,-6.681000E-12
+1.402100E+01,-6.666000E-12
+1.403100E+01,-6.681000E-12
+1.404100E+01,-6.665000E-12
+1.405100E+01,-6.682000E-12
+1.406100E+01,-6.664000E-12
+1.407100E+01,-6.682000E-12
+1.408100E+01,-6.667000E-12
+1.409100E+01,-6.680000E-12
+1.410100E+01,-6.667000E-12
+1.411100E+01,-6.681000E-12
+1.412100E+01,-6.666000E-12
+1.413100E+01,-6.679000E-12
+1.414100E+01,-6.663000E-12
+1.415100E+01,-6.683000E-12
+1.416100E+01,-6.662000E-12
+1.417100E+01,-6.681000E-12
+1.418100E+01,-6.663000E-12
+1.419100E+01,-6.674000E-12
+1.420100E+01,-6.663000E-12
+1.421100E+01,-6.678000E-12
+1.422100E+01,-6.662000E-12
+1.423100E+01,-6.680000E-12
+1.424100E+01,-6.662000E-12
+1.425100E+01,-6.685000E-12
+1.426100E+01,-6.666000E-12
+1.427100E+01,-6.686000E-12
+1.428100E+01,-6.668000E-12
+1.429100E+01,-6.682000E-12
+1.430100E+01,-6.668000E-12
+1.431100E+01,-6.689000E-12
+1.432100E+01,-6.670000E-12
+1.433100E+01,-6.684000E-12
+1.434100E+01,-6.673000E-12
+1.435100E+01,-6.684000E-12
+1.436100E+01,-6.670000E-12
+1.437100E+01,-6.677000E-12
+1.438100E+01,-6.673000E-12
+1.439100E+01,-6.678000E-12
+1.440100E+01,-6.677000E-12
+1.441100E+01,-6.680000E-12
+1.442100E+01,-6.675000E-12
+1.443100E+01,-6.674000E-12
+1.444100E+01,-6.673000E-12
+1.445100E+01,-6.676000E-12
+1.446100E+01,-6.678000E-12
+1.447100E+01,-6.676000E-12
+1.448100E+01,-6.673000E-12
+1.449100E+01,-6.670000E-12
+1.450100E+01,-6.677000E-12
+1.451100E+01,-6.668000E-12
+1.452100E+01,-6.672000E-12
+1.453100E+01,-6.667000E-12
+1.454100E+01,-6.671000E-12
+1.455100E+01,-6.680000E-12
+1.456100E+01,-6.669000E-12
+1.457100E+01,-6.678000E-12
+1.458100E+01,-6.671000E-12
+1.459100E+01,-6.685000E-12
+1.460100E+01,-6.669000E-12
+1.461100E+01,-6.674000E-12
+1.462100E+01,-6.665000E-12
+1.463100E+01,-6.681000E-12
+1.464100E+01,-6.664000E-12
+1.465100E+01,-6.680000E-12
+1.466100E+01,-6.663000E-12
+1.467100E+01,-6.688000E-12
+1.468100E+01,-6.661000E-12
+1.469100E+01,-6.681000E-12
+1.470100E+01,-6.659000E-12
+1.471100E+01,-6.689000E-12
+1.472100E+01,-6.663000E-12
+1.473100E+01,-6.686000E-12
+1.474100E+01,-6.660000E-12
+1.475100E+01,-6.692000E-12
+1.476100E+01,-6.660000E-12
+1.477100E+01,-6.696000E-12
+1.478100E+01,-6.660000E-12
+1.479100E+01,-6.694000E-12
+1.480100E+01,-6.663000E-12
+1.481100E+01,-6.687000E-12
+1.482100E+01,-6.666000E-12
+1.483100E+01,-6.691000E-12
+1.484100E+01,-6.664000E-12
+1.485100E+01,-6.693000E-12
+1.486100E+01,-6.667000E-12
+1.487100E+01,-6.692000E-12
+1.488100E+01,-6.665000E-12
+1.489100E+01,-6.688000E-12
+1.490100E+01,-6.665000E-12
+1.491100E+01,-6.684000E-12
+1.492100E+01,-6.668000E-12
+1.493100E+01,-6.685000E-12
+1.494100E+01,-6.668000E-12
+1.495100E+01,-6.687000E-12
+1.496100E+01,-6.669000E-12
+1.497100E+01,-6.681000E-12
+1.498100E+01,-6.669000E-12
+1.499100E+01,-6.679000E-12
+1.500100E+01,-6.670000E-12
+1.501100E+01,-6.679000E-12
+1.502100E+01,-6.669000E-12
+1.503100E+01,-6.679000E-12
+1.504100E+01,-6.674000E-12
+1.505100E+01,-6.680000E-12
+1.506100E+01,-6.674000E-12
+1.507100E+01,-6.684000E-12
+1.508100E+01,-6.681000E-12
+1.509100E+01,-6.683000E-12
+1.510100E+01,-6.685000E-12
+1.511100E+01,-6.682000E-12
+1.512100E+01,-6.683000E-12
+1.513100E+01,-6.681000E-12
+1.514100E+01,-6.681000E-12
+1.515100E+01,-6.684000E-12
+1.516100E+01,-6.681000E-12
+1.517100E+01,-6.679000E-12
+1.518100E+01,-6.679000E-12
+1.519100E+01,-6.679000E-12
+1.520100E+01,-6.675000E-12
+1.521100E+01,-6.677000E-12
+1.522100E+01,-6.672000E-12
+1.523100E+01,-6.677000E-12
+1.524100E+01,-6.672000E-12
+1.525100E+01,-6.681000E-12
+1.526100E+01,-6.672000E-12
+1.527100E+01,-6.682000E-12
+1.528100E+01,-6.673000E-12
+1.529100E+01,-6.684000E-12
+1.530100E+01,-6.672000E-12
+1.531100E+01,-6.683000E-12
+1.532100E+01,-6.672000E-12
+1.533100E+01,-6.680000E-12
+1.534100E+01,-6.671000E-12
+1.535100E+01,-6.682000E-12
+1.536100E+01,-6.669000E-12
+1.537100E+01,-6.679000E-12
+1.538100E+01,-6.668000E-12
+1.539100E+01,-6.677000E-12
+1.540100E+01,-6.666000E-12
+1.541100E+01,-6.676000E-12
+1.542100E+01,-6.662000E-12
+1.543100E+01,-6.676000E-12
+1.544100E+01,-6.662000E-12
+1.545100E+01,-6.677000E-12
+1.546100E+01,-6.661000E-12
+1.547100E+01,-6.676000E-12
+1.548100E+01,-6.659000E-12
+1.549100E+01,-6.680000E-12
+1.550100E+01,-6.666000E-12
+1.551100E+01,-6.676000E-12
+1.552100E+01,-6.655000E-12
+1.553100E+01,-6.672000E-12
+1.554100E+01,-6.654000E-12
+1.555100E+01,-6.671000E-12
+1.556100E+01,-6.655000E-12
+1.557100E+01,-6.671000E-12
+1.558100E+01,-6.652000E-12
+1.559100E+01,-6.675000E-12
+1.560100E+01,-6.657000E-12
+1.561100E+01,-6.675000E-12
+1.562100E+01,-6.650000E-12
+1.563100E+01,-6.670000E-12
+1.564100E+01,-6.651000E-12
+1.565100E+01,-6.672000E-12
+1.566100E+01,-6.654000E-12
+1.567100E+01,-6.673000E-12
+1.568100E+01,-6.652000E-12
+1.569100E+01,-6.673000E-12
+1.570100E+01,-6.648000E-12
+1.571100E+01,-6.672000E-12
+1.572100E+01,-6.651000E-12
+1.573100E+01,-6.671000E-12
+1.574100E+01,-6.648000E-12
+1.575100E+01,-6.675000E-12
+1.576100E+01,-6.649000E-12
+1.577100E+01,-6.665000E-12
+1.578100E+01,-6.646000E-12
+1.579100E+01,-6.664000E-12
+1.580100E+01,-6.644000E-12
+1.581100E+01,-6.660000E-12
+1.582100E+01,-6.649000E-12
+1.583100E+01,-6.661000E-12
+1.584100E+01,-6.649000E-12
+1.585100E+01,-6.672000E-12
+1.586100E+01,-6.647000E-12
+1.587100E+01,-6.667000E-12
+1.588100E+01,-6.648000E-12
+1.589100E+01,-6.667000E-12
+1.590100E+01,-6.653000E-12
+1.591100E+01,-6.663000E-12
+1.592100E+01,-6.652000E-12
+1.593100E+01,-6.668000E-12
+1.594100E+01,-6.655000E-12
+1.595100E+01,-6.670000E-12
+1.596100E+01,-6.654000E-12
+1.597100E+01,-6.666000E-12
+1.598100E+01,-6.652000E-12
+1.599100E+01,-6.661000E-12
+1.600100E+01,-6.652000E-12
+1.601100E+01,-6.660000E-12
+1.602100E+01,-6.655000E-12
+1.603100E+01,-6.664000E-12
+1.604100E+01,-6.654000E-12
+1.605100E+01,-6.665000E-12
+1.606100E+01,-6.667000E-12
+1.607100E+01,-6.675000E-12
+1.608100E+01,-6.669000E-12
+1.609100E+01,-6.677000E-12
+1.610100E+01,-6.668000E-12
+1.611100E+01,-6.679000E-12
+1.612100E+01,-6.671000E-12
+1.613100E+01,-6.683000E-12
+1.614100E+01,-6.668000E-12
+1.615100E+01,-6.682000E-12
+1.616100E+01,-6.669000E-12
+1.617100E+01,-6.684000E-12
+1.618100E+01,-6.669000E-12
+1.619100E+01,-6.684000E-12
+1.620100E+01,-6.670000E-12
+1.621100E+01,-6.687000E-12
+1.622100E+01,-6.670000E-12
+1.623100E+01,-6.684000E-12
+1.624100E+01,-6.674000E-12
+1.625100E+01,-6.684000E-12
+1.626100E+01,-6.680000E-12
+1.627100E+01,-6.681000E-12
+1.628100E+01,-6.684000E-12
+1.629100E+01,-6.683000E-12
+1.630100E+01,-6.682000E-12
+1.631100E+01,-6.669000E-12
+1.632100E+01,-6.686000E-12
+1.633100E+01,-6.674000E-12
+1.634100E+01,-6.685000E-12
+1.635100E+01,-6.664000E-12
+1.636100E+01,-6.688000E-12
+1.637100E+01,-6.669000E-12
+1.638100E+01,-6.690000E-12
+1.639100E+01,-6.663000E-12
+1.640100E+01,-6.696000E-12
+1.641100E+01,-6.672000E-12
+1.642100E+01,-6.694000E-12
+1.643100E+01,-6.673000E-12
+1.644100E+01,-6.696000E-12
+1.645100E+01,-6.672000E-12
+1.646100E+01,-6.690000E-12
+1.647100E+01,-6.673000E-12
+1.648100E+01,-6.689000E-12
+1.649100E+01,-6.671000E-12
+1.650100E+01,-6.687000E-12
+1.651100E+01,-6.687000E-12
+1.652100E+01,-6.673000E-12
+1.653100E+01,-6.685000E-12
+1.654100E+01,-6.674000E-12
+1.655100E+01,-6.688000E-12
+1.656100E+01,-6.673000E-12
+1.657100E+01,-6.683000E-12
+1.658100E+01,-6.675000E-12
+1.659100E+01,-6.683000E-12
+1.660100E+01,-6.676000E-12
+1.661100E+01,-6.681000E-12
+1.662100E+01,-6.677000E-12
+1.663100E+01,-6.676000E-12
+1.664100E+01,-6.680000E-12
+1.665100E+01,-6.676000E-12
+1.666100E+01,-6.683000E-12
+1.667100E+01,-6.678000E-12
+1.668100E+01,-6.684000E-12
+1.669100E+01,-6.678000E-12
+1.670100E+01,-6.682000E-12
+1.671100E+01,-6.677000E-12
+1.672100E+01,-6.681000E-12
+1.673100E+01,-6.680000E-12
+1.674100E+01,-6.682000E-12
+1.675100E+01,-6.680000E-12
+1.676100E+01,-6.681000E-12
+1.677100E+01,-6.684000E-12
+1.678100E+01,-6.681000E-12
+1.679100E+01,-6.687000E-12
+1.680100E+01,-6.681000E-12
+1.681100E+01,-6.685000E-12
+1.682100E+01,-6.683000E-12
+1.683100E+01,-6.678000E-12
+1.684100E+01,-6.675000E-12
+1.685100E+01,-6.680000E-12
+1.686100E+01,-6.674000E-12
+1.687100E+01,-6.685000E-12
+1.688100E+01,-6.679000E-12
+1.689100E+01,-6.683000E-12
+1.690100E+01,-6.677000E-12
+1.691100E+01,-6.684000E-12
+1.692100E+01,-6.669000E-12
+1.693100E+01,-6.683000E-12
+1.694100E+01,-6.671000E-12
+1.695100E+01,-6.683000E-12
+1.696100E+01,-6.668000E-12
+1.697100E+01,-6.684000E-12
+1.698100E+01,-6.673000E-12
+1.699100E+01,-6.683000E-12
+1.700100E+01,-6.672000E-12
+1.701100E+01,-6.679000E-12
+1.702100E+01,-6.664000E-12
+1.703100E+01,-6.679000E-12
+1.704100E+01,-6.664000E-12
+1.705100E+01,-6.686000E-12
+1.706100E+01,-6.668000E-12
+1.707100E+01,-6.684000E-12
+1.708100E+01,-6.667000E-12
+1.709100E+01,-6.682000E-12
+1.710100E+01,-6.672000E-12
+1.711100E+01,-6.686000E-12
+1.712100E+01,-6.668000E-12
+1.713100E+01,-6.684000E-12
+1.714100E+01,-6.666000E-12
+1.715100E+01,-6.684000E-12
+1.716100E+01,-6.671000E-12
+1.717100E+01,-6.690000E-12
+1.718100E+01,-6.672000E-12
+1.719100E+01,-6.690000E-12
+1.720100E+01,-6.667000E-12
+1.721100E+01,-6.695000E-12
+1.722100E+01,-6.670000E-12
+1.723100E+01,-6.686000E-12
+1.724100E+01,-6.670000E-12
+1.725100E+01,-6.687000E-12
+1.726100E+01,-6.671000E-12
+1.727100E+01,-6.692000E-12
+1.728100E+01,-6.669000E-12
+1.729100E+01,-6.695000E-12
+1.730100E+01,-6.671000E-12
+1.731100E+01,-6.691000E-12
+1.732100E+01,-6.670000E-12
+1.733100E+01,-6.687000E-12
+1.734100E+01,-6.670000E-12
+1.735100E+01,-6.688000E-12
+1.736100E+01,-6.672000E-12
+1.737100E+01,-6.691000E-12
+1.738100E+01,-6.672000E-12
+1.739100E+01,-6.690000E-12
+1.740100E+01,-6.673000E-12
+1.741100E+01,-6.693000E-12
+1.742100E+01,-6.671000E-12
+1.743100E+01,-6.688000E-12
+1.744100E+01,-6.672000E-12
+1.745100E+01,-6.687000E-12
+1.746100E+01,-6.669000E-12
+1.747100E+01,-6.684000E-12
+1.748100E+01,-6.670000E-12
+1.749100E+01,-6.687000E-12
+1.750100E+01,-6.674000E-12
+1.751100E+01,-6.690000E-12
+1.752100E+01,-6.669000E-12
+1.753100E+01,-6.686000E-12
+1.754100E+01,-6.667000E-12
+1.755100E+01,-6.685000E-12
+1.756100E+01,-6.670000E-12
+1.757100E+01,-6.688000E-12
+1.758100E+01,-6.665000E-12
+1.759100E+01,-6.689000E-12
+1.760100E+01,-6.668000E-12
+1.761100E+01,-6.686000E-12
+1.762100E+01,-6.668000E-12
+1.763100E+01,-6.684000E-12
+1.764100E+01,-6.674000E-12
+1.765100E+01,-6.686000E-12
+1.766100E+01,-6.669000E-12
+1.767100E+01,-6.683000E-12
+1.768100E+01,-6.673000E-12
+1.769100E+01,-6.684000E-12
+1.770100E+01,-6.664000E-12
+1.771100E+01,-6.683000E-12
+1.772100E+01,-6.664000E-12
+1.773100E+01,-6.678000E-12
+1.774100E+01,-6.648000E-12
+1.775100E+01,-6.663000E-12
+1.776100E+01,-6.645000E-12
+1.777100E+01,-6.659000E-12
+1.778100E+01,-6.646000E-12
+1.779100E+01,-6.661000E-12
+1.780100E+01,-6.647000E-12
+1.781100E+01,-6.655000E-12
+1.782100E+01,-6.653000E-12
+1.783100E+01,-6.653000E-12
+1.784100E+01,-6.654000E-12
+1.785100E+01,-6.651000E-12
+1.786100E+01,-6.660000E-12
+1.787100E+01,-6.644000E-12
+1.788100E+01,-6.655000E-12
+1.789100E+01,-6.647000E-12
+1.790100E+01,-6.647000E-12
+1.791100E+01,-6.652000E-12
+1.792100E+01,-6.648000E-12
+1.793100E+01,-6.651000E-12
+1.794100E+01,-6.662000E-12
+1.795100E+01,-6.641000E-12
+1.796100E+01,-6.668000E-12
+1.797100E+01,-6.636000E-12
+1.798100E+01,-6.669000E-12
+1.799100E+01,-6.635000E-12
+1.800100E+01,-6.674000E-12
+1.801100E+01,-6.638000E-12
+1.802100E+01,-6.669000E-12
+1.803100E+01,-6.644000E-12
+1.804100E+01,-6.668000E-12
+1.805100E+01,-6.653000E-12
+1.806100E+01,-6.660000E-12
+1.807100E+01,-6.659000E-12
+1.808100E+01,-6.654000E-12
+1.809100E+01,-6.658000E-12
+1.810100E+01,-6.642000E-12
+1.811100E+01,-6.667000E-12
+1.812100E+01,-6.646000E-12
+1.813100E+01,-6.661000E-12
+1.814100E+01,-6.637000E-12
+1.815100E+01,-6.661000E-12
+1.816100E+01,-6.636000E-12
+1.817100E+01,-6.661000E-12
+1.818100E+01,-6.631000E-12
+1.819100E+01,-6.654000E-12
+1.820100E+01,-6.632000E-12
+1.821100E+01,-6.662000E-12
+1.822100E+01,-6.639000E-12
+1.823100E+01,-6.660000E-12
+1.824100E+01,-6.636000E-12
+1.825100E+01,-6.653000E-12
+1.826100E+01,-6.637000E-12
+1.827100E+01,-6.646000E-12
+1.828100E+01,-6.643000E-12
+1.829100E+01,-6.627000E-12
+1.830100E+01,-6.625000E-12
+1.831100E+01,-6.626000E-12
+1.832100E+01,-6.622000E-12
+1.833100E+01,-6.624000E-12
+1.834100E+01,-6.623000E-12
+1.835100E+01,-6.621000E-12
+1.836100E+01,-6.621000E-12
+1.837100E+01,-6.615000E-12
+1.838100E+01,-6.616000E-12
+1.839100E+01,-6.613000E-12
+1.840100E+01,-6.605000E-12
+1.841100E+01,-6.612000E-12
+1.842100E+01,-6.603000E-12
+1.843100E+01,-6.610000E-12
+1.844100E+01,-6.605000E-12
+1.845100E+01,-6.608000E-12
+1.846100E+01,-6.607000E-12
+1.847100E+01,-6.610000E-12
+1.848100E+01,-6.603000E-12
+1.849100E+01,-6.607000E-12
+1.850100E+01,-6.599000E-12
+1.851100E+01,-6.602000E-12
+1.852100E+01,-6.604000E-12
+1.853100E+01,-6.600000E-12
+1.854100E+01,-6.592000E-12
+1.855100E+01,-6.599000E-12
+1.856100E+01,-6.590000E-12
+1.857100E+01,-6.595000E-12
+1.858100E+01,-6.586000E-12
+1.859100E+01,-6.594000E-12
+1.860100E+01,-6.568000E-12
+1.861100E+01,-6.583000E-12
+1.862100E+01,-6.573000E-12
+1.863100E+01,-6.581000E-12
+1.864100E+01,-6.571000E-12
+1.865100E+01,-6.583000E-12
+1.866100E+01,-6.569000E-12
+1.867100E+01,-6.584000E-12
+1.868100E+01,-6.573000E-12
+1.869100E+01,-6.586000E-12
+1.870100E+01,-6.573000E-12
+1.871100E+01,-6.588000E-12
+1.872100E+01,-6.576000E-12
+1.873100E+01,-6.589000E-12
+1.874100E+01,-6.573000E-12
+1.875100E+01,-6.588000E-12
+1.876100E+01,-6.570000E-12
+1.877100E+01,-6.589000E-12
+1.878100E+01,-6.568000E-12
+1.879100E+01,-6.588000E-12
+1.880100E+01,-6.566000E-12
+1.881100E+01,-6.581000E-12
+1.882100E+01,-6.588000E-12
+1.883100E+01,-6.605000E-12
+1.884100E+01,-6.590000E-12
+1.885100E+01,-6.611000E-12
+1.886100E+01,-6.589000E-12
+1.887100E+01,-6.608000E-12
+1.888100E+01,-6.588000E-12
+1.889100E+01,-6.608000E-12
+1.890100E+01,-6.591000E-12
+1.891100E+01,-6.609000E-12
+1.892100E+01,-6.591000E-12
+1.893100E+01,-6.610000E-12
+1.894100E+01,-6.592000E-12
+1.895100E+01,-6.612000E-12
+1.896100E+01,-6.593000E-12
+1.897100E+01,-6.617000E-12
+1.898100E+01,-6.593000E-12
+1.899100E+01,-6.611000E-12
+1.900100E+01,-6.596000E-12
+1.901100E+01,-6.616000E-12
+1.902100E+01,-6.597000E-12
+1.903100E+01,-6.619000E-12
+1.904100E+01,-6.599000E-12
+1.905100E+01,-6.619000E-12
+1.906100E+01,-6.596000E-12
+1.907100E+01,-6.620000E-12
+1.908100E+01,-6.597000E-12
+1.909100E+01,-6.621000E-12
+1.910100E+01,-6.603000E-12
+1.911100E+01,-6.626000E-12
+1.912100E+01,-6.607000E-12
+1.913100E+01,-6.628000E-12
+1.914100E+01,-6.612000E-12
+1.915100E+01,-6.631000E-12
+1.916100E+01,-6.615000E-12
+1.917100E+01,-6.635000E-12
+1.918100E+01,-6.622000E-12
+1.919100E+01,-6.642000E-12
+1.920100E+01,-6.629000E-12
+1.921100E+01,-6.650000E-12
+1.922100E+01,-6.637000E-12
+1.923100E+01,-6.658000E-12
+1.924100E+01,-6.641000E-12
+1.925100E+01,-6.657000E-12
+1.926100E+01,-6.645000E-12
+1.927100E+01,-6.662000E-12
+1.928100E+01,-6.662000E-12
+1.929100E+01,-6.648000E-12
+1.930100E+01,-6.665000E-12
+1.931100E+01,-6.652000E-12
+1.932100E+01,-6.671000E-12
+1.933100E+01,-6.656000E-12
+1.934100E+01,-6.672000E-12
+1.935100E+01,-6.657000E-12
+1.936100E+01,-6.670000E-12
+1.937100E+01,-6.658000E-12
+1.938100E+01,-6.671000E-12
+1.939100E+01,-6.660000E-12
+1.940100E+01,-6.671000E-12
+1.941100E+01,-6.657000E-12
+1.942100E+01,-6.674000E-12
+1.943100E+01,-6.658000E-12
+1.944100E+01,-6.672000E-12
+1.945100E+01,-6.662000E-12
+1.946100E+01,-6.678000E-12
+1.947100E+01,-6.660000E-12
+1.948100E+01,-6.681000E-12
+1.949100E+01,-6.663000E-12
+1.950100E+01,-6.680000E-12
+1.951100E+01,-6.659000E-12
+1.952100E+01,-6.686000E-12
+1.953100E+01,-6.666000E-12
+1.954100E+01,-6.687000E-12
+1.955100E+01,-6.671000E-12
+1.956100E+01,-6.689000E-12
+1.957100E+01,-6.672000E-12
+1.958100E+01,-6.685000E-12
+1.959100E+01,-6.673000E-12
+1.960100E+01,-6.688000E-12
+1.961100E+01,-6.678000E-12
+1.962100E+01,-6.687000E-12
+1.963100E+01,-6.674000E-12
+1.964100E+01,-6.686000E-12
+1.965100E+01,-6.684000E-12
+1.966100E+01,-6.687000E-12
+1.967100E+01,-6.685000E-12
+1.968100E+01,-6.688000E-12
+1.969100E+01,-6.690000E-12
+1.970100E+01,-6.675000E-12
+1.971100E+01,-6.689000E-12
+1.972100E+01,-6.674000E-12
+1.973100E+01,-6.697000E-12
+1.974100E+01,-6.670000E-12
+1.975100E+01,-6.699000E-12
+1.976100E+01,-6.671000E-12
+1.977100E+01,-6.701000E-12
+1.978100E+01,-6.676000E-12
+1.979100E+01,-6.708000E-12
+1.980100E+01,-6.678000E-12
+1.981100E+01,-6.707000E-12
+1.982100E+01,-6.680000E-12
+1.983100E+01,-6.713000E-12
+1.984100E+01,-6.685000E-12
+1.985100E+01,-6.699000E-12
+1.986100E+01,-6.679000E-12
+1.987100E+01,-6.695000E-12
+1.988100E+01,-6.688000E-12
+1.989100E+01,-6.697000E-12
+1.990100E+01,-6.681000E-12
+1.991100E+01,-6.696000E-12
+1.992100E+01,-6.685000E-12
+1.993100E+01,-6.700000E-12
+1.994100E+01,-6.692000E-12
+1.995100E+01,-6.696000E-12
+1.996100E+01,-6.694000E-12
+1.997100E+01,-6.688000E-12
+1.998100E+01,-6.700000E-12
+1.999100E+01,-6.688000E-12
+2.000100E+01,-6.698000E-12
+2.001100E+01,-6.683000E-12
+2.002100E+01,-6.702000E-12
+2.003100E+01,-6.689000E-12
+2.004100E+01,-6.701000E-12
+2.005100E+01,-6.687000E-12
+2.006100E+01,-6.704000E-12
+2.007100E+01,-6.693000E-12
+2.008100E+01,-6.706000E-12
+2.009100E+01,-6.696000E-12
+2.010100E+01,-6.701000E-12
+2.011100E+01,-6.714000E-12
+2.012100E+01,-6.714000E-12
+2.013100E+01,-6.713000E-12
+2.014100E+01,-6.714000E-12
+2.015100E+01,-6.720000E-12
+2.016100E+01,-6.715000E-12
+2.017100E+01,-6.720000E-12
+2.018100E+01,-6.719000E-12
+2.019100E+01,-6.720000E-12
+2.020100E+01,-6.721000E-12
+2.021100E+01,-6.722000E-12
+2.022100E+01,-6.716000E-12
+2.023100E+01,-6.724000E-12
+2.024100E+01,-6.719000E-12
+2.025100E+01,-6.721000E-12
+2.026100E+01,-6.720000E-12
+2.027100E+01,-6.724000E-12
+2.028100E+01,-6.717000E-12
+2.029100E+01,-6.726000E-12
+2.030100E+01,-6.716000E-12
+2.031100E+01,-6.727000E-12
+2.032100E+01,-6.721000E-12
+2.033100E+01,-6.730000E-12
+2.034100E+01,-6.723000E-12
+2.035100E+01,-6.731000E-12
+2.036100E+01,-6.721000E-12
+2.037100E+01,-6.733000E-12
+2.038100E+01,-6.721000E-12
+2.039100E+01,-6.739000E-12
+2.040100E+01,-6.725000E-12
+2.041100E+01,-6.736000E-12
+2.042100E+01,-6.727000E-12
+2.043100E+01,-6.751000E-12
+2.044100E+01,-6.748000E-12
+2.045100E+01,-6.777000E-12
+2.046100E+01,-6.762000E-12
+2.047100E+01,-6.780000E-12
+2.048100E+01,-6.766000E-12
+2.049100E+01,-6.779000E-12
+2.050100E+01,-6.764000E-12
+2.051100E+01,-6.780000E-12
+2.052100E+01,-6.764000E-12
+2.053100E+01,-6.781000E-12
+2.054100E+01,-6.764000E-12
+2.055100E+01,-6.782000E-12
+2.056100E+01,-6.768000E-12
+2.057100E+01,-6.786000E-12
+2.058100E+01,-6.769000E-12
+2.059100E+01,-6.785000E-12
+2.060100E+01,-6.770000E-12
+2.061100E+01,-6.790000E-12
+2.062100E+01,-6.771000E-12
+2.063100E+01,-6.786000E-12
+2.064100E+01,-6.771000E-12
+2.065100E+01,-6.788000E-12
+2.066100E+01,-6.770000E-12
+2.067100E+01,-6.770000E-12
+2.068100E+01,-6.787000E-12
+2.069100E+01,-6.769000E-12
+2.070100E+01,-6.783000E-12
+2.071100E+01,-6.760000E-12
+2.072100E+01,-6.779000E-12
+2.073100E+01,-6.760000E-12
+2.074100E+01,-6.777000E-12
+2.075100E+01,-6.761000E-12
+2.076100E+01,-6.779000E-12
+2.077100E+01,-6.759000E-12
+2.078100E+01,-6.779000E-12
+2.079100E+01,-6.760000E-12
+2.080100E+01,-6.775000E-12
+2.081100E+01,-6.758000E-12
+2.082100E+01,-6.778000E-12
+2.083100E+01,-6.758000E-12
+2.084100E+01,-6.775000E-12
+2.085100E+01,-6.753000E-12
+2.086100E+01,-6.772000E-12
+2.087100E+01,-6.753000E-12
+2.088100E+01,-6.771000E-12
+2.089100E+01,-6.750000E-12
+2.090100E+01,-6.769000E-12
+2.091100E+01,-6.748000E-12
+2.092100E+01,-6.770000E-12
+2.093100E+01,-6.747000E-12
+2.094100E+01,-6.767000E-12
+2.095100E+01,-6.746000E-12
+2.096100E+01,-6.769000E-12
+2.097100E+01,-6.754000E-12
+2.098100E+01,-6.770000E-12
+2.099100E+01,-6.751000E-12
+2.100100E+01,-6.768000E-12
+2.101100E+01,-6.752000E-12
+2.102100E+01,-6.769000E-12
+2.103100E+01,-6.753000E-12
+2.104100E+01,-6.771000E-12
+2.105100E+01,-6.755000E-12
+2.106100E+01,-6.769000E-12
+2.107100E+01,-6.754000E-12
+2.108100E+01,-6.769000E-12
+2.109100E+01,-6.748000E-12
+2.110100E+01,-6.768000E-12
+2.111100E+01,-6.749000E-12
+2.112100E+01,-6.766000E-12
+2.113100E+01,-6.748000E-12
+2.114100E+01,-6.764000E-12
+2.115100E+01,-6.746000E-12
+2.116100E+01,-6.763000E-12
+2.117100E+01,-6.754000E-12
+2.118100E+01,-6.766000E-12
+2.119100E+01,-6.754000E-12
+2.120100E+01,-6.764000E-12
+2.121100E+01,-6.749000E-12
+2.122100E+01,-6.762000E-12
+2.123100E+01,-6.756000E-12
+2.124100E+01,-6.763000E-12
+2.125100E+01,-6.752000E-12
+2.126100E+01,-6.756000E-12
+2.127100E+01,-6.763000E-12
+2.128100E+01,-6.753000E-12
+2.129100E+01,-6.769000E-12
+2.130100E+01,-6.747000E-12
+2.131100E+01,-6.772000E-12
+2.132100E+01,-6.748000E-12
+2.133100E+01,-6.766000E-12
+2.134100E+01,-6.753000E-12
+2.135100E+01,-6.767000E-12
+2.136100E+01,-6.744000E-12
+2.137100E+01,-6.757000E-12
+2.138100E+01,-6.754000E-12
+2.139100E+01,-6.758000E-12
+2.140100E+01,-6.754000E-12
+2.141100E+01,-6.751000E-12
+2.142100E+01,-6.765000E-12
+2.143100E+01,-6.745000E-12
+2.144100E+01,-6.768000E-12
+2.145100E+01,-6.742000E-12
+2.146100E+01,-6.767000E-12
+2.147100E+01,-6.737000E-12
+2.148100E+01,-6.772000E-12
+2.149100E+01,-6.733000E-12
+2.150100E+01,-6.764000E-12
+2.151100E+01,-6.727000E-12
+2.152100E+01,-6.765000E-12
+2.153100E+01,-6.727000E-12
+2.154100E+01,-6.768000E-12
+2.155100E+01,-6.732000E-12
+2.156100E+01,-6.762000E-12
+2.157100E+01,-6.732000E-12
+2.158100E+01,-6.762000E-12
+2.159100E+01,-6.729000E-12
+2.160100E+01,-6.759000E-12
+2.161100E+01,-6.736000E-12
+2.162100E+01,-6.752000E-12
+2.163100E+01,-6.727000E-12
+2.164100E+01,-6.741000E-12
+2.165100E+01,-6.726000E-12
+2.166100E+01,-6.738000E-12
+2.167100E+01,-6.728000E-12
+2.168100E+01,-6.732000E-12
+2.169100E+01,-6.727000E-12
+2.170100E+01,-6.735000E-12
+2.171100E+01,-6.729000E-12
+2.172100E+01,-6.732000E-12
+2.173100E+01,-6.731000E-12
+2.174100E+01,-6.732000E-12
+2.175100E+01,-6.730000E-12
+2.176100E+01,-6.729000E-12
+2.177100E+01,-6.728000E-12
+2.178100E+01,-6.729000E-12
+2.179100E+01,-6.727000E-12
+2.180100E+01,-6.729000E-12
+2.181100E+01,-6.730000E-12
+2.182100E+01,-6.728000E-12
+2.183100E+01,-6.719000E-12
+2.184100E+01,-6.721000E-12
+2.185100E+01,-6.722000E-12
+2.186100E+01,-6.715000E-12
+2.187100E+01,-6.716000E-12
+2.188100E+01,-6.711000E-12
+2.189100E+01,-6.714000E-12
+2.190100E+01,-6.712000E-12
+2.191100E+01,-6.717000E-12
+2.192100E+01,-6.710000E-12
+2.193100E+01,-6.715000E-12
+2.194100E+01,-6.707000E-12
+2.195100E+01,-6.715000E-12
+2.196100E+01,-6.707000E-12
+2.197100E+01,-6.717000E-12
+2.198100E+01,-6.708000E-12
+2.199100E+01,-6.718000E-12
+2.200100E+01,-6.710000E-12
+2.201100E+01,-6.721000E-12
+2.202100E+01,-6.706000E-12
+2.203100E+01,-6.720000E-12
+2.204100E+01,-6.706000E-12
+2.205100E+01,-6.711000E-12
+2.206100E+01,-6.711000E-12
+2.207100E+01,-6.699000E-12
+2.208100E+01,-6.715000E-12
+2.209100E+01,-6.697000E-12
+2.210100E+01,-6.709000E-12
+2.211100E+01,-6.696000E-12
+2.212100E+01,-6.712000E-12
+2.213100E+01,-6.696000E-12
+2.214100E+01,-6.710000E-12
+2.215100E+01,-6.697000E-12
+2.216100E+01,-6.714000E-12
+2.217100E+01,-6.697000E-12
+2.218100E+01,-6.709000E-12
+2.219100E+01,-6.690000E-12
+2.220100E+01,-6.708000E-12
+2.221100E+01,-6.691000E-12
+2.222100E+01,-6.706000E-12
+2.223100E+01,-6.687000E-12
+2.224100E+01,-6.705000E-12
+2.225100E+01,-6.684000E-12
+2.226100E+01,-6.703000E-12
+2.227100E+01,-6.684000E-12
+2.228100E+01,-6.700000E-12
+2.229100E+01,-6.685000E-12
+2.230100E+01,-6.699000E-12
+2.231100E+01,-6.684000E-12
+2.232100E+01,-6.700000E-12
+2.233100E+01,-6.680000E-12
+2.234100E+01,-6.698000E-12
+2.235100E+01,-6.678000E-12
+2.236100E+01,-6.697000E-12
+2.237100E+01,-6.679000E-12
+2.238100E+01,-6.695000E-12
+2.239100E+01,-6.677000E-12
+2.240100E+01,-6.692000E-12
+2.241100E+01,-6.666000E-12
+2.242100E+01,-6.683000E-12
+2.243100E+01,-6.663000E-12
+2.244100E+01,-6.680000E-12
+2.245100E+01,-6.659000E-12
+2.246100E+01,-6.677000E-12
+2.247100E+01,-6.652000E-12
+2.248100E+01,-6.659000E-12
+2.249100E+01,-6.640000E-12
+2.250100E+01,-6.658000E-12
+2.251100E+01,-6.639000E-12
+2.252100E+01,-6.657000E-12
+2.253100E+01,-6.637000E-12
+2.254100E+01,-6.658000E-12
+2.255100E+01,-6.640000E-12
+2.256100E+01,-6.659000E-12
+2.257100E+01,-6.636000E-12
+2.258100E+01,-6.656000E-12
+2.259100E+01,-6.634000E-12
+2.260100E+01,-6.657000E-12
+2.261100E+01,-6.638000E-12
+2.262100E+01,-6.653000E-12
+2.263100E+01,-6.640000E-12
+2.264100E+01,-6.653000E-12
+2.265100E+01,-6.636000E-12
+2.266100E+01,-6.645000E-12
+2.267100E+01,-6.633000E-12
+2.268100E+01,-6.645000E-12
+2.269100E+01,-6.633000E-12
+2.270100E+01,-6.641000E-12
+2.271100E+01,-6.626000E-12
+2.272100E+01,-6.640000E-12
+2.273100E+01,-6.626000E-12
+2.274100E+01,-6.642000E-12
+2.275100E+01,-6.622000E-12
+2.276100E+01,-6.646000E-12
+2.277100E+01,-6.621000E-12
+2.278100E+01,-6.642000E-12
+2.279100E+01,-6.620000E-12
+2.280100E+01,-6.638000E-12
+2.281100E+01,-6.622000E-12
+2.282100E+01,-6.634000E-12
+2.283100E+01,-6.615000E-12
+2.284100E+01,-6.639000E-12
+2.285100E+01,-6.617000E-12
+2.286100E+01,-6.641000E-12
+2.287100E+01,-6.618000E-12
+2.288100E+01,-6.642000E-12
+2.289100E+01,-6.610000E-12
+2.290100E+01,-6.644000E-12
+2.291100E+01,-6.614000E-12
+2.292100E+01,-6.637000E-12
+2.293100E+01,-6.612000E-12
+2.294100E+01,-6.641000E-12
+2.295100E+01,-6.609000E-12
+2.296100E+01,-6.640000E-12
+2.297100E+01,-6.604000E-12
+2.298100E+01,-6.638000E-12
+2.299100E+01,-6.602000E-12
+2.300100E+01,-6.634000E-12
+2.301100E+01,-6.602000E-12
+2.302100E+01,-6.637000E-12
+2.303100E+01,-6.599000E-12
+2.304100E+01,-6.637000E-12
+2.305100E+01,-6.601000E-12
+2.306100E+01,-6.626000E-12
+2.307100E+01,-6.606000E-12
+2.308100E+01,-6.623000E-12
+2.309100E+01,-6.604000E-12
+2.310100E+01,-6.617000E-12
+2.311100E+01,-6.610000E-12
+2.312100E+01,-6.617000E-12
+2.313100E+01,-6.610000E-12
+2.314100E+01,-6.616000E-12
+2.315100E+01,-6.613000E-12
+2.316100E+01,-6.611000E-12
+2.317100E+01,-6.614000E-12
+2.318100E+01,-6.603000E-12
+2.319100E+01,-6.612000E-12
+2.320100E+01,-6.605000E-12
+2.321100E+01,-6.612000E-12
+2.322100E+01,-6.605000E-12
+2.323100E+01,-6.608000E-12
+2.324100E+01,-6.599000E-12
+2.325100E+01,-6.607000E-12
+2.326100E+01,-6.601000E-12
+2.327100E+01,-6.608000E-12
+2.328100E+01,-6.601000E-12
+2.329100E+01,-6.613000E-12
+2.330100E+01,-6.605000E-12
+2.331100E+01,-6.610000E-12
+2.332100E+01,-6.603000E-12
+2.333100E+01,-6.612000E-12
+2.334100E+01,-6.602000E-12
+2.335100E+01,-6.610000E-12
+2.336100E+01,-6.604000E-12
+2.337100E+01,-6.612000E-12
+2.338100E+01,-6.606000E-12
+2.339100E+01,-6.610000E-12
+2.340100E+01,-6.606000E-12
+2.341100E+01,-6.608000E-12
+2.342100E+01,-6.607000E-12
+2.343100E+01,-6.609000E-12
+2.344100E+01,-6.604000E-12
+2.345100E+01,-6.604000E-12
+2.346100E+01,-6.609000E-12
+2.347100E+01,-6.605000E-12
+2.348100E+01,-6.607000E-12
+2.349100E+01,-6.608000E-12
+2.350100E+01,-6.607000E-12
+2.351100E+01,-6.607000E-12
+2.352100E+01,-6.608000E-12
+2.353100E+01,-6.604000E-12
+2.354100E+01,-6.610000E-12
+2.355100E+01,-6.605000E-12
+2.356100E+01,-6.609000E-12
+2.357100E+01,-6.603000E-12
+2.358100E+01,-6.609000E-12
+2.359100E+01,-6.605000E-12
+2.360100E+01,-6.600000E-12
+2.361100E+01,-6.595000E-12
+2.362100E+01,-6.601000E-12
+2.363100E+01,-6.596000E-12
+2.364100E+01,-6.601000E-12
+2.365100E+01,-6.592000E-12
+2.366100E+01,-6.604000E-12
+2.367100E+01,-6.592000E-12
+2.368100E+01,-6.604000E-12
+2.369100E+01,-6.593000E-12
+2.370100E+01,-6.603000E-12
+2.371100E+01,-6.591000E-12
+2.372100E+01,-6.602000E-12
+2.373100E+01,-6.593000E-12
+2.374100E+01,-6.603000E-12
+2.375100E+01,-6.591000E-12
+2.376100E+01,-6.605000E-12
+2.377100E+01,-6.592000E-12
+2.378100E+01,-6.606000E-12
+2.379100E+01,-6.592000E-12
+2.380100E+01,-6.610000E-12
+2.381100E+01,-6.594000E-12
+2.382100E+01,-6.610000E-12
+2.383100E+01,-6.594000E-12
+2.384100E+01,-6.611000E-12
+2.385100E+01,-6.594000E-12
+2.386100E+01,-6.612000E-12
+2.387100E+01,-6.597000E-12
+2.388100E+01,-6.613000E-12
+2.389100E+01,-6.593000E-12
+2.390100E+01,-6.612000E-12
+2.391100E+01,-6.595000E-12
+2.392100E+01,-6.610000E-12
+2.393100E+01,-6.599000E-12
+2.394100E+01,-6.619000E-12
+2.395100E+01,-6.604000E-12
+2.396100E+01,-6.623000E-12
+2.397100E+01,-6.604000E-12
+2.398100E+01,-6.622000E-12
+2.399100E+01,-6.602000E-12
+2.400100E+01,-6.617000E-12
+2.401100E+01,-6.608000E-12
+2.402100E+01,-6.622000E-12
+2.403100E+01,-6.600000E-12
+2.404100E+01,-6.613000E-12
+2.405100E+01,-6.599000E-12
+2.406100E+01,-6.623000E-12
+2.407100E+01,-6.598000E-12
+2.408100E+01,-6.608000E-12
+2.409100E+01,-6.593000E-12
+2.410100E+01,-6.609000E-12
+2.411100E+01,-6.589000E-12
+2.412100E+01,-6.604000E-12
+2.413100E+01,-6.588000E-12
+2.414100E+01,-6.600000E-12
+2.415100E+01,-6.595000E-12
+2.416100E+01,-6.603000E-12
+2.417100E+01,-6.595000E-12
+2.418100E+01,-6.605000E-12
+2.419100E+01,-6.585000E-12
+2.420100E+01,-6.609000E-12
+2.421100E+01,-6.590000E-12
+2.422100E+01,-6.603000E-12
+2.423100E+01,-6.591000E-12
+2.424100E+01,-6.609000E-12
+2.425100E+01,-6.588000E-12
+2.426100E+01,-6.606000E-12
+2.427100E+01,-6.590000E-12
+2.428100E+01,-6.608000E-12
+2.429100E+01,-6.586000E-12
+2.430100E+01,-6.605000E-12
+2.431100E+01,-6.591000E-12
+2.432100E+01,-6.605000E-12
+2.433100E+01,-6.589000E-12
+2.434100E+01,-6.603000E-12
+2.435100E+01,-6.589000E-12
+2.436100E+01,-6.603000E-12
+2.437100E+01,-6.588000E-12
+2.438100E+01,-6.606000E-12
+2.439100E+01,-6.590000E-12
+2.440100E+01,-6.605000E-12
+2.441100E+01,-6.588000E-12
+2.442100E+01,-6.603000E-12
+2.443100E+01,-6.591000E-12
+2.444100E+01,-6.605000E-12
+2.445100E+01,-6.599000E-12
+2.446100E+01,-6.617000E-12
+2.447100E+01,-6.600000E-12
+2.448100E+01,-6.620000E-12
+2.449100E+01,-6.599000E-12
+2.450100E+01,-6.618000E-12
+2.451100E+01,-6.599000E-12
+2.452100E+01,-6.616000E-12
+2.453100E+01,-6.603000E-12
+2.454100E+01,-6.615000E-12
+2.455100E+01,-6.607000E-12
+2.456100E+01,-6.604000E-12
+2.457100E+01,-6.610000E-12
+2.458100E+01,-6.604000E-12
+2.459100E+01,-6.611000E-12
+2.460100E+01,-6.599000E-12
+2.461100E+01,-6.613000E-12
+2.462100E+01,-6.597000E-12
+2.463100E+01,-6.615000E-12
+2.464100E+01,-6.591000E-12
+2.465100E+01,-6.607000E-12
+2.466100E+01,-6.594000E-12
+2.467100E+01,-6.601000E-12
+2.468100E+01,-6.589000E-12
+2.469100E+01,-6.598000E-12
+2.470100E+01,-6.593000E-12
+2.471100E+01,-6.584000E-12
+2.472100E+01,-6.600000E-12
+2.473100E+01,-6.586000E-12
+2.474100E+01,-6.597000E-12
+2.475100E+01,-6.581000E-12
+2.476100E+01,-6.611000E-12
+2.477100E+01,-6.579000E-12
+2.478100E+01,-6.614000E-12
+2.479100E+01,-6.574000E-12
+2.480100E+01,-6.615000E-12
+2.481100E+01,-6.568000E-12
+2.482100E+01,-6.613000E-12
+2.483100E+01,-6.569000E-12
+2.484100E+01,-6.610000E-12
+2.485100E+01,-6.610000E-12
+2.486100E+01,-6.575000E-12
+2.487100E+01,-6.609000E-12
+2.488100E+01,-6.578000E-12
+2.489100E+01,-6.604000E-12
+2.490100E+01,-6.582000E-12
+2.491100E+01,-6.599000E-12
+2.492100E+01,-6.584000E-12
+2.493100E+01,-6.599000E-12
+2.494100E+01,-6.586000E-12
+2.495100E+01,-6.594000E-12
+2.496100E+01,-6.590000E-12
+2.497100E+01,-6.592000E-12
+2.498100E+01,-6.589000E-12
+2.499100E+01,-6.594000E-12
+2.500100E+01,-6.589000E-12
+2.501100E+01,-6.588000E-12
+2.502100E+01,-6.584000E-12
+2.503100E+01,-6.586000E-12
+2.504100E+01,-6.589000E-12
+2.505100E+01,-6.585000E-12
+2.506100E+01,-6.587000E-12
+2.507100E+01,-6.589000E-12
+2.508100E+01,-6.589000E-12
+2.509100E+01,-6.589000E-12
+2.510100E+01,-6.588000E-12
+2.511100E+01,-6.589000E-12
+2.512100E+01,-6.588000E-12
+2.513100E+01,-6.589000E-12
+2.514100E+01,-6.585000E-12
+2.515100E+01,-6.587000E-12
+2.516100E+01,-6.583000E-12
+2.517100E+01,-6.578000E-12
+2.518100E+01,-6.580000E-12
+2.519100E+01,-6.581000E-12
+2.520100E+01,-6.580000E-12
+2.521100E+01,-6.584000E-12
+2.522100E+01,-6.588000E-12
+2.523100E+01,-6.584000E-12
+2.524100E+01,-6.587000E-12
+2.525100E+01,-6.586000E-12
+2.526100E+01,-6.594000E-12
+2.527100E+01,-6.588000E-12
+2.528100E+01,-6.597000E-12
+2.529100E+01,-6.596000E-12
+2.530100E+01,-6.606000E-12
+2.531100E+01,-6.601000E-12
+2.532100E+01,-6.609000E-12
+2.533100E+01,-6.599000E-12
+2.534100E+01,-6.604000E-12
+2.535100E+01,-6.601000E-12
+2.536100E+01,-6.603000E-12
+2.537100E+01,-6.599000E-12
+2.538100E+01,-6.609000E-12
+2.539100E+01,-6.598000E-12
+2.540100E+01,-6.610000E-12
+2.541100E+01,-6.604000E-12
+2.542100E+01,-6.608000E-12
+2.543100E+01,-6.601000E-12
+2.544100E+01,-6.610000E-12
+2.545100E+01,-6.602000E-12
+2.546100E+01,-6.615000E-12
+2.547100E+01,-6.606000E-12
+2.548100E+01,-6.622000E-12
+2.549100E+01,-6.604000E-12
+2.550100E+01,-6.625000E-12
+2.551100E+01,-6.619000E-12
+2.552100E+01,-6.633000E-12
+2.553100E+01,-6.610000E-12
+2.554100E+01,-6.627000E-12
+2.555100E+01,-6.620000E-12
+2.556100E+01,-6.633000E-12
+2.557100E+01,-6.615000E-12
+2.558100E+01,-6.637000E-12
+2.559100E+01,-6.612000E-12
+2.560100E+01,-6.635000E-12
+2.561100E+01,-6.610000E-12
+2.562100E+01,-6.635000E-12
+2.563100E+01,-6.614000E-12
+2.564100E+01,-6.630000E-12
+2.565100E+01,-6.609000E-12
+2.566100E+01,-6.622000E-12
+2.567100E+01,-6.610000E-12
+2.568100E+01,-6.626000E-12
+2.569100E+01,-6.607000E-12
+2.570100E+01,-6.625000E-12
+2.571100E+01,-6.610000E-12
+2.572100E+01,-6.627000E-12
+2.573100E+01,-6.609000E-12
+2.574100E+01,-6.626000E-12
+2.575100E+01,-6.610000E-12
+2.576100E+01,-6.626000E-12
+2.577100E+01,-6.609000E-12
+2.578100E+01,-6.627000E-12
+2.579100E+01,-6.610000E-12
+2.580100E+01,-6.627000E-12
+2.581100E+01,-6.610000E-12
+2.582100E+01,-6.624000E-12
+2.583100E+01,-6.608000E-12
+2.584100E+01,-6.628000E-12
+2.585100E+01,-6.613000E-12
+2.586100E+01,-6.627000E-12
+2.587100E+01,-6.612000E-12
+2.588100E+01,-6.629000E-12
+2.589100E+01,-6.612000E-12
+2.590100E+01,-6.631000E-12
+2.591100E+01,-6.612000E-12
+2.592100E+01,-6.642000E-12
+2.593100E+01,-6.628000E-12
+2.594100E+01,-6.644000E-12
+2.595100E+01,-6.625000E-12
+2.596100E+01,-6.642000E-12
+2.597100E+01,-6.627000E-12
+2.598100E+01,-6.642000E-12
+2.599100E+01,-6.629000E-12
+2.600100E+01,-6.648000E-12
+2.601100E+01,-6.634000E-12
+2.602100E+01,-6.653000E-12
+2.603100E+01,-6.640000E-12
+2.604100E+01,-6.656000E-12
+2.605100E+01,-6.646000E-12
+2.606100E+01,-6.657000E-12
+2.607100E+01,-6.645000E-12
+2.608100E+01,-6.659000E-12
+2.609100E+01,-6.643000E-12
+2.610100E+01,-6.660000E-12
+2.611100E+01,-6.648000E-12
+2.612100E+01,-6.659000E-12
+2.613100E+01,-6.649000E-12
+2.614100E+01,-6.662000E-12
+2.615100E+01,-6.650000E-12
+2.616100E+01,-6.661000E-12
+2.617100E+01,-6.648000E-12
+2.618100E+01,-6.657000E-12
+2.619100E+01,-6.654000E-12
+2.620100E+01,-6.658000E-12
+2.621100E+01,-6.658000E-12
+2.622100E+01,-6.654000E-12
+2.623100E+01,-6.656000E-12
+2.624100E+01,-6.656000E-12
+2.625100E+01,-6.647000E-12
+2.626100E+01,-6.657000E-12
+2.627100E+01,-6.646000E-12
+2.628100E+01,-6.652000E-12
+2.629100E+01,-6.647000E-12
+2.630100E+01,-6.645000E-12
+2.631100E+01,-6.642000E-12
+2.632100E+01,-6.648000E-12
+2.633100E+01,-6.645000E-12
+2.634100E+01,-6.646000E-12
+2.635100E+01,-6.644000E-12
+2.636100E+01,-6.637000E-12
+2.637100E+01,-6.646000E-12
+2.638100E+01,-6.640000E-12
+2.639100E+01,-6.645000E-12
+2.640100E+01,-6.637000E-12
+2.641100E+01,-6.636000E-12
+2.642100E+01,-6.633000E-12
+2.643100E+01,-6.658000E-12
+2.644100E+01,-6.634000E-12
+2.645100E+01,-6.645000E-12
+2.646100E+01,-6.629000E-12
+2.647100E+01,-6.653000E-12
+2.648100E+01,-6.626000E-12
+2.649100E+01,-6.656000E-12
+2.650100E+01,-6.624000E-12
+2.651100E+01,-6.656000E-12
+2.652100E+01,-6.622000E-12
+2.653100E+01,-6.656000E-12
+2.654100E+01,-6.622000E-12
+2.655100E+01,-6.653000E-12
+2.656100E+01,-6.628000E-12
+2.657100E+01,-6.646000E-12
+2.658100E+01,-6.628000E-12
+2.659100E+01,-6.642000E-12
+2.660100E+01,-6.637000E-12
+2.661100E+01,-6.637000E-12
+2.662100E+01,-6.633000E-12
+2.663100E+01,-6.625000E-12
+2.664100E+01,-6.637000E-12
+2.665100E+01,-6.630000E-12
+2.666100E+01,-6.641000E-12
+2.667100E+01,-6.623000E-12
+2.668100E+01,-6.637000E-12
+2.669100E+01,-6.631000E-12
+2.670100E+01,-6.635000E-12
+2.671100E+01,-6.627000E-12
+2.672100E+01,-6.630000E-12
+2.673100E+01,-6.625000E-12
+2.674100E+01,-6.629000E-12
+2.675100E+01,-6.626000E-12
+2.676100E+01,-6.630000E-12
+2.677100E+01,-6.627000E-12
+2.678100E+01,-6.626000E-12
+2.679100E+01,-6.632000E-12
+2.680100E+01,-6.629000E-12
+2.681100E+01,-6.637000E-12
+2.682100E+01,-6.643000E-12
+2.683100E+01,-6.631000E-12
+2.684100E+01,-6.636000E-12
+2.685100E+01,-6.637000E-12
+2.686100E+01,-6.633000E-12
+2.687100E+01,-6.632000E-12
+2.688100E+01,-6.635000E-12
+2.689100E+01,-6.635000E-12
+2.690100E+01,-6.640000E-12
+2.691100E+01,-6.627000E-12
+2.692100E+01,-6.637000E-12
+2.693100E+01,-6.628000E-12
+2.694100E+01,-6.631000E-12
+2.695100E+01,-6.632000E-12
+2.696100E+01,-6.630000E-12
+2.697100E+01,-6.632000E-12
+2.698100E+01,-6.640000E-12
+2.699100E+01,-6.627000E-12
+2.700100E+01,-6.637000E-12
+2.701100E+01,-6.621000E-12
+2.702100E+01,-6.635000E-12
+2.703100E+01,-6.629000E-12
+2.704100E+01,-6.638000E-12
+2.705100E+01,-6.628000E-12
+2.706100E+01,-6.640000E-12
+2.707100E+01,-6.627000E-12
+2.708100E+01,-6.641000E-12
+2.709100E+01,-6.632000E-12
+2.710100E+01,-6.642000E-12
+2.711100E+01,-6.627000E-12
+2.712100E+01,-6.639000E-12
+2.713100E+01,-6.627000E-12
+2.714100E+01,-6.642000E-12
+2.715100E+01,-6.623000E-12
+2.716100E+01,-6.641000E-12
+2.717100E+01,-6.626000E-12
+2.718100E+01,-6.643000E-12
+2.719100E+01,-6.626000E-12
+2.720100E+01,-6.639000E-12
+2.721100E+01,-6.619000E-12
+2.722100E+01,-6.634000E-12
+2.723100E+01,-6.619000E-12
+2.724100E+01,-6.637000E-12
+2.725100E+01,-6.616000E-12
+2.726100E+01,-6.631000E-12
+2.727100E+01,-6.616000E-12
+2.728100E+01,-6.634000E-12
+2.729100E+01,-6.617000E-12
+2.730100E+01,-6.637000E-12
+2.731100E+01,-6.616000E-12
+2.732100E+01,-6.638000E-12
+2.733100E+01,-6.620000E-12
+2.734100E+01,-6.633000E-12
+2.735100E+01,-6.620000E-12
+2.736100E+01,-6.638000E-12
+2.737100E+01,-6.619000E-12
+2.738100E+01,-6.635000E-12
+2.739100E+01,-6.618000E-12
+2.740100E+01,-6.637000E-12
+2.741100E+01,-6.615000E-12
+2.742100E+01,-6.636000E-12
+2.743100E+01,-6.611000E-12
+2.744100E+01,-6.632000E-12
+2.745100E+01,-6.609000E-12
+2.746100E+01,-6.621000E-12
+2.747100E+01,-6.601000E-12
+2.748100E+01,-6.623000E-12
+2.749100E+01,-6.600000E-12
+2.750100E+01,-6.621000E-12
+2.751100E+01,-6.603000E-12
+2.752100E+01,-6.620000E-12
+2.753100E+01,-6.601000E-12
+2.754100E+01,-6.621000E-12
+2.755100E+01,-6.601000E-12
+2.756100E+01,-6.619000E-12
+2.757100E+01,-6.601000E-12
+2.758100E+01,-6.619000E-12
+2.759100E+01,-6.603000E-12
+2.760100E+01,-6.617000E-12
+2.761100E+01,-6.603000E-12
+2.762100E+01,-6.618000E-12
+2.763100E+01,-6.618000E-12
+2.764100E+01,-6.599000E-12
+2.765100E+01,-6.615000E-12
+2.766100E+01,-6.604000E-12
+2.767100E+01,-6.611000E-12
+2.768100E+01,-6.593000E-12
+2.769100E+01,-6.610000E-12
+2.770100E+01,-6.595000E-12
+2.771100E+01,-6.610000E-12
+2.772100E+01,-6.598000E-12
+2.773100E+01,-6.608000E-12
+2.774100E+01,-6.596000E-12
+2.775100E+01,-6.608000E-12
+2.776100E+01,-6.595000E-12
+2.777100E+01,-6.605000E-12
+2.778100E+01,-6.593000E-12
+2.779100E+01,-6.604000E-12
+2.780100E+01,-6.595000E-12
+2.781100E+01,-6.604000E-12
+2.782100E+01,-6.595000E-12
+2.783100E+01,-6.600000E-12
+2.784100E+01,-6.597000E-12
+2.785100E+01,-6.605000E-12
+2.786100E+01,-6.595000E-12
+2.787100E+01,-6.605000E-12
+2.788100E+01,-6.594000E-12
+2.789100E+01,-6.605000E-12
+2.790100E+01,-6.591000E-12
+2.791100E+01,-6.605000E-12
+2.792100E+01,-6.589000E-12
+2.793100E+01,-6.607000E-12
+2.794100E+01,-6.584000E-12
+2.795100E+01,-6.607000E-12
+2.796100E+01,-6.586000E-12
+2.797100E+01,-6.609000E-12
+2.798100E+01,-6.583000E-12
+2.799100E+01,-6.606000E-12
+2.800100E+01,-6.583000E-12
+2.801100E+01,-6.602000E-12
+2.802100E+01,-6.581000E-12
+2.803100E+01,-6.599000E-12
+2.804100E+01,-6.580000E-12
+2.805100E+01,-6.601000E-12
+2.806100E+01,-6.584000E-12
+2.807100E+01,-6.594000E-12
+2.808100E+01,-6.584000E-12
+2.809100E+01,-6.591000E-12
+2.810100E+01,-6.585000E-12
+2.811100E+01,-6.567000E-12
+2.812100E+01,-6.571000E-12
+2.813100E+01,-6.563000E-12
+2.814100E+01,-6.577000E-12
+2.815100E+01,-6.555000E-12
+2.816100E+01,-6.572000E-12
+2.817100E+01,-6.546000E-12
+2.818100E+01,-6.581000E-12
+2.819100E+01,-6.540000E-12
+2.820100E+01,-6.576000E-12
+2.821100E+01,-6.544000E-12
+2.822100E+01,-6.582000E-12
+2.823100E+01,-6.551000E-12
+2.824100E+01,-6.573000E-12
+2.825100E+01,-6.552000E-12
+2.826100E+01,-6.576000E-12
+2.827100E+01,-6.563000E-12
+2.828100E+01,-6.572000E-12
+2.829100E+01,-6.553000E-12
+2.830100E+01,-6.568000E-12
+2.831100E+01,-6.551000E-12
+2.832100E+01,-6.564000E-12
+2.833100E+01,-6.547000E-12
+2.834100E+01,-6.564000E-12
+2.835100E+01,-6.558000E-12
+2.836100E+01,-6.556000E-12
+2.837100E+01,-6.554000E-12
+2.838100E+01,-6.558000E-12
+2.839100E+01,-6.563000E-12
+2.840100E+01,-6.559000E-12
+2.841100E+01,-6.555000E-12
+2.842100E+01,-6.557000E-12
+2.843100E+01,-6.559000E-12
+2.844100E+01,-6.557000E-12
+2.845100E+01,-6.565000E-12
+2.846100E+01,-6.557000E-12
+2.847100E+01,-6.567000E-12
+2.848100E+01,-6.560000E-12
+2.849100E+01,-6.566000E-12
+2.850100E+01,-6.558000E-12
+2.851100E+01,-6.563000E-12
+2.852100E+01,-6.563000E-12
+2.853100E+01,-6.575000E-12
+2.854100E+01,-6.594000E-12
+2.855100E+01,-6.591000E-12
+2.856100E+01,-6.597000E-12
+2.857100E+01,-6.594000E-12
+2.858100E+01,-6.601000E-12
+2.859100E+01,-6.597000E-12
+2.860100E+01,-6.602000E-12
+2.861100E+01,-6.604000E-12
+2.862100E+01,-6.602000E-12
+2.863100E+01,-6.599000E-12
+2.864100E+01,-6.603000E-12
+2.865100E+01,-6.600000E-12
+2.866100E+01,-6.603000E-12
+2.867100E+01,-6.602000E-12
+2.868100E+01,-6.601000E-12
+2.869100E+01,-6.600000E-12
+2.870100E+01,-6.606000E-12
+2.871100E+01,-6.594000E-12
+2.872100E+01,-6.599000E-12
+2.873100E+01,-6.587000E-12
+2.874100E+01,-6.593000E-12
+2.875100E+01,-6.580000E-12
+2.876100E+01,-6.556000E-12
+2.877100E+01,-6.544000E-12
+2.878100E+01,-6.555000E-12
+2.879100E+01,-6.542000E-12
+2.880100E+01,-6.554000E-12
+2.881100E+01,-6.541000E-12
+2.882100E+01,-6.556000E-12
+2.883100E+01,-6.541000E-12
+2.884100E+01,-6.559000E-12
+2.885100E+01,-6.539000E-12
+2.886100E+01,-6.557000E-12
+2.887100E+01,-6.538000E-12
+2.888100E+01,-6.560000E-12
+2.889100E+01,-6.585000E-12
+2.890100E+01,-6.606000E-12
+2.891100E+01,-6.573000E-12
+2.892100E+01,-6.585000E-12
+2.893100E+01,-6.562000E-12
+2.894100E+01,-6.562000E-12
+2.895100E+01,-6.550000E-12
+2.896100E+01,-6.574000E-12
+2.897100E+01,-6.553000E-12
+2.898100E+01,-6.576000E-12
+2.899100E+01,-6.556000E-12
+2.900100E+01,-6.578000E-12
+2.901100E+01,-6.566000E-12
+2.902100E+01,-6.584000E-12
+2.903100E+01,-6.584000E-12
+2.904100E+01,-6.566000E-12
+2.905100E+01,-6.587000E-12
+2.906100E+01,-6.588000E-12
+2.907100E+01,-6.611000E-12
+2.908100E+01,-6.594000E-12
+2.909100E+01,-6.620000E-12
+2.910100E+01,-6.601000E-12
+2.911100E+01,-6.617000E-12
+2.912100E+01,-6.603000E-12
+2.913100E+01,-6.638000E-12
+2.914100E+01,-6.622000E-12
+2.915100E+01,-6.644000E-12
+2.916100E+01,-6.623000E-12
+2.917100E+01,-6.643000E-12
+2.918100E+01,-6.623000E-12
+2.919100E+01,-6.645000E-12
+2.920100E+01,-6.626000E-12
+2.921100E+01,-6.647000E-12
+2.922100E+01,-6.628000E-12
+2.923100E+01,-6.647000E-12
+2.924100E+01,-6.628000E-12
+2.925100E+01,-6.647000E-12
+2.926100E+01,-6.630000E-12
+2.927100E+01,-6.653000E-12
+2.928100E+01,-6.633000E-12
+2.929100E+01,-6.652000E-12
+2.930100E+01,-6.631000E-12
+2.931100E+01,-6.646000E-12
+2.932100E+01,-6.630000E-12
+2.933100E+01,-6.640000E-12
+2.934100E+01,-6.629000E-12
+2.935100E+01,-6.643000E-12
+2.936100E+01,-6.629000E-12
+2.937100E+01,-6.637000E-12
+2.938100E+01,-6.625000E-12
+2.939100E+01,-6.641000E-12
+2.940100E+01,-6.624000E-12
+2.941100E+01,-6.640000E-12
+2.942100E+01,-6.625000E-12
+2.943100E+01,-6.635000E-12
+2.944100E+01,-6.620000E-12
+2.945100E+01,-6.632000E-12
+2.946100E+01,-6.619000E-12
+2.947100E+01,-6.636000E-12
+2.948100E+01,-6.619000E-12
+2.949100E+01,-6.631000E-12
+2.950100E+01,-6.617000E-12
+2.951100E+01,-6.629000E-12
+2.952100E+01,-6.618000E-12
+2.953100E+01,-6.627000E-12
+2.954100E+01,-6.616000E-12
+2.955100E+01,-6.626000E-12
+2.956100E+01,-6.621000E-12
+2.957100E+01,-6.622000E-12
+2.958100E+01,-6.621000E-12
+2.959100E+01,-6.620000E-12
+2.960100E+01,-6.617000E-12
+2.961100E+01,-6.613000E-12
+2.962100E+01,-6.620000E-12
+2.963100E+01,-6.617000E-12
+2.964100E+01,-6.608000E-12
+2.965100E+01,-6.622000E-12
+2.966100E+01,-6.608000E-12
+2.967100E+01,-6.622000E-12
+2.968100E+01,-6.595000E-12
+2.969100E+01,-6.631000E-12
+2.970100E+01,-6.601000E-12
+2.971100E+01,-6.631000E-12
+2.972100E+01,-6.610000E-12
+2.973100E+01,-6.631000E-12
+2.974100E+01,-6.610000E-12
+2.975100E+01,-6.627000E-12
+2.976100E+01,-6.622000E-12
+2.977100E+01,-6.629000E-12
+2.978100E+01,-6.625000E-12
+2.979100E+01,-6.612000E-12
+2.980100E+01,-6.626000E-12
+2.981100E+01,-6.611000E-12
+2.982100E+01,-6.630000E-12
+2.983100E+01,-6.601000E-12
+2.984100E+01,-6.632000E-12
+2.985100E+01,-6.600000E-12
+2.986100E+01,-6.623000E-12
+2.987100E+01,-6.607000E-12
+2.988100E+01,-6.615000E-12
+2.989100E+01,-6.610000E-12
+2.990100E+01,-6.610000E-12
+2.991100E+01,-6.622000E-12
+2.992100E+01,-6.598000E-12
+2.993100E+01,-6.624000E-12
+2.994100E+01,-6.595000E-12
+2.995100E+01,-6.630000E-12
+2.996100E+01,-6.600000E-12
+2.997100E+01,-6.627000E-12
+2.998100E+01,-6.605000E-12
+2.999100E+01,-6.626000E-12
+3.000100E+01,-6.605000E-12
+3.001100E+01,-6.615000E-12
+3.002100E+01,-6.615000E-12
+3.003100E+01,-6.612000E-12
+3.004100E+01,-6.614000E-12
+3.005100E+01,-6.604000E-12
+3.006100E+01,-6.615000E-12
+3.007100E+01,-6.603000E-12
+3.008100E+01,-6.619000E-12
+3.009100E+01,-6.599000E-12
+3.010100E+01,-6.615000E-12
+3.011100E+01,-6.601000E-12
+3.012100E+01,-6.611000E-12
+3.013100E+01,-6.605000E-12
+3.014100E+01,-6.608000E-12
+3.015100E+01,-6.606000E-12
+3.016100E+01,-6.606000E-12
+3.017100E+01,-6.607000E-12
+3.018100E+01,-6.604000E-12
+3.019100E+01,-6.606000E-12
+3.020100E+01,-6.603000E-12
+3.021100E+01,-6.609000E-12
+3.022100E+01,-6.601000E-12
+3.023100E+01,-6.567000E-12
+3.024100E+01,-6.563000E-12
+3.025100E+01,-6.563000E-12
+3.026100E+01,-6.558000E-12
+3.027100E+01,-6.557000E-12
+3.028100E+01,-6.556000E-12
+3.029100E+01,-6.560000E-12
+3.030100E+01,-6.559000E-12
+3.031100E+01,-6.553000E-12
+3.032100E+01,-6.558000E-12
+3.033100E+01,-6.552000E-12
+3.034100E+01,-6.561000E-12
+3.035100E+01,-6.552000E-12
+3.036100E+01,-6.556000E-12
+3.037100E+01,-6.552000E-12
+3.038100E+01,-6.554000E-12
+3.039100E+01,-6.550000E-12
+3.040100E+01,-6.552000E-12
+3.041100E+01,-6.544000E-12
+3.042100E+01,-6.544000E-12
+3.043100E+01,-6.552000E-12
+3.044100E+01,-6.543000E-12
+3.045100E+01,-6.554000E-12
+3.046100E+01,-6.544000E-12
+3.047100E+01,-6.553000E-12
+3.048100E+01,-6.546000E-12
+3.049100E+01,-6.558000E-12
+3.050100E+01,-6.546000E-12
+3.051100E+01,-6.560000E-12
+3.052100E+01,-6.544000E-12
+3.053100E+01,-6.560000E-12
+3.054100E+01,-6.547000E-12
+3.055100E+01,-6.561000E-12
+3.056100E+01,-6.546000E-12
+3.057100E+01,-6.565000E-12
+3.058100E+01,-6.550000E-12
+3.059100E+01,-6.564000E-12
+3.060100E+01,-6.548000E-12
+3.061100E+01,-6.563000E-12
+3.062100E+01,-6.547000E-12
+3.063100E+01,-6.565000E-12
+3.064100E+01,-6.549000E-12
+3.065100E+01,-6.570000E-12
+3.066100E+01,-6.551000E-12
+3.067100E+01,-6.574000E-12
+3.068100E+01,-6.553000E-12
+3.069100E+01,-6.573000E-12
+3.070100E+01,-6.553000E-12
+3.071100E+01,-6.572000E-12
+3.072100E+01,-6.554000E-12
+3.073100E+01,-6.575000E-12
+3.074100E+01,-6.556000E-12
+3.075100E+01,-6.577000E-12
+3.076100E+01,-6.556000E-12
+3.077100E+01,-6.578000E-12
+3.078100E+01,-6.556000E-12
+3.079100E+01,-6.578000E-12
+3.080100E+01,-6.554000E-12
+3.081100E+01,-6.573000E-12
+3.082100E+01,-6.554000E-12
+3.083100E+01,-6.575000E-12
+3.084100E+01,-6.553000E-12
+3.085100E+01,-6.577000E-12
+3.086100E+01,-6.552000E-12
+3.087100E+01,-6.576000E-12
+3.088100E+01,-6.559000E-12
+3.089100E+01,-6.578000E-12
+3.090100E+01,-6.552000E-12
+3.091100E+01,-6.578000E-12
+3.092100E+01,-6.561000E-12
+3.093100E+01,-6.578000E-12
+3.094100E+01,-6.553000E-12
+3.095100E+01,-6.578000E-12
+3.096100E+01,-6.555000E-12
+3.097100E+01,-6.575000E-12
+3.098100E+01,-6.559000E-12
+3.099100E+01,-6.577000E-12
+3.100100E+01,-6.557000E-12
+3.101100E+01,-6.570000E-12
+3.102100E+01,-6.553000E-12
+3.103100E+01,-6.581000E-12
+3.104100E+01,-6.557000E-12
+3.105100E+01,-6.581000E-12
+3.106100E+01,-6.558000E-12
+3.107100E+01,-6.578000E-12
+3.108100E+01,-6.565000E-12
+3.109100E+01,-6.583000E-12
+3.110100E+01,-6.555000E-12
+3.111100E+01,-6.579000E-12
+3.112100E+01,-6.561000E-12
+3.113100E+01,-6.586000E-12
+3.114100E+01,-6.562000E-12
+3.115100E+01,-6.580000E-12
+3.116100E+01,-6.563000E-12
+3.117100E+01,-6.581000E-12
+3.118100E+01,-6.564000E-12
+3.119100E+01,-6.581000E-12
+3.120100E+01,-6.558000E-12
+3.121100E+01,-6.583000E-12
+3.122100E+01,-6.567000E-12
+3.123100E+01,-6.583000E-12
+3.124100E+01,-6.567000E-12
+3.125100E+01,-6.575000E-12
+3.126100E+01,-6.571000E-12
+3.127100E+01,-6.570000E-12
+3.128100E+01,-6.574000E-12
+3.129100E+01,-6.574000E-12
+3.130100E+01,-6.568000E-12
+3.131100E+01,-6.568000E-12
+3.132100E+01,-6.568000E-12
+3.133100E+01,-6.565000E-12
+3.134100E+01,-6.562000E-12
+3.135100E+01,-6.569000E-12
+3.136100E+01,-6.564000E-12
+3.137100E+01,-6.570000E-12
+3.138100E+01,-6.562000E-12
+3.139100E+01,-6.573000E-12
+3.140100E+01,-6.558000E-12
+3.141100E+01,-6.573000E-12
+3.142100E+01,-6.554000E-12
+3.143100E+01,-6.583000E-12
+3.144100E+01,-6.551000E-12
+3.145100E+01,-6.585000E-12
+3.146100E+01,-6.553000E-12
+3.147100E+01,-6.581000E-12
+3.148100E+01,-6.557000E-12
+3.149100E+01,-6.586000E-12
+3.150100E+01,-6.558000E-12
+3.151100E+01,-6.581000E-12
+3.152100E+01,-6.556000E-12
+3.153100E+01,-6.576000E-12
+3.154100E+01,-6.562000E-12
+3.155100E+01,-6.576000E-12
+3.156100E+01,-6.569000E-12
+3.157100E+01,-6.577000E-12
+3.158100E+01,-6.576000E-12
+3.159100E+01,-6.560000E-12
+3.160100E+01,-6.575000E-12
+3.161100E+01,-6.563000E-12
+3.162100E+01,-6.580000E-12
+3.163100E+01,-6.562000E-12
+3.164100E+01,-6.579000E-12
+3.165100E+01,-6.558000E-12
+3.166100E+01,-6.580000E-12
+3.167100E+01,-6.558000E-12
+3.168100E+01,-6.578000E-12
+3.169100E+01,-6.558000E-12
+3.170100E+01,-6.575000E-12
+3.171100E+01,-6.556000E-12
+3.172100E+01,-6.577000E-12
+3.173100E+01,-6.561000E-12
+3.174100E+01,-6.569000E-12
+3.175100E+01,-6.562000E-12
+3.176100E+01,-6.572000E-12
+3.177100E+01,-6.566000E-12
+3.178100E+01,-6.573000E-12
+3.179100E+01,-6.569000E-12
+3.180100E+01,-6.568000E-12
+3.181100E+01,-6.568000E-12
+3.182100E+01,-6.575000E-12
+3.183100E+01,-6.573000E-12
+3.184100E+01,-6.573000E-12
+3.185100E+01,-6.573000E-12
+3.186100E+01,-6.572000E-12
+3.187100E+01,-6.570000E-12
+3.188100E+01,-6.575000E-12
+3.189100E+01,-6.573000E-12
+3.190100E+01,-6.577000E-12
+3.191100E+01,-6.573000E-12
+3.192100E+01,-6.576000E-12
+3.193100E+01,-6.577000E-12
+3.194100E+01,-6.579000E-12
+3.195100E+01,-6.580000E-12
+3.196100E+01,-6.577000E-12
+3.197100E+01,-6.581000E-12
+3.198100E+01,-6.576000E-12
+3.199100E+01,-6.578000E-12
+3.200100E+01,-6.575000E-12
+3.201100E+01,-6.575000E-12
+3.202100E+01,-6.578000E-12
+3.203100E+01,-6.579000E-12
+3.204100E+01,-6.575000E-12
+3.205100E+01,-6.577000E-12
+3.206100E+01,-6.576000E-12
+3.207100E+01,-6.581000E-12
+3.208100E+01,-6.579000E-12
+3.209100E+01,-6.584000E-12
+3.210100E+01,-6.578000E-12
+3.211100E+01,-6.584000E-12
+3.212100E+01,-6.579000E-12
+3.213100E+01,-6.589000E-12
+3.214100E+01,-6.580000E-12
+3.215100E+01,-6.590000E-12
+3.216100E+01,-6.580000E-12
+3.217100E+01,-6.591000E-12
+3.218100E+01,-6.581000E-12
+3.219100E+01,-6.595000E-12
+3.220100E+01,-6.583000E-12
+3.221100E+01,-6.593000E-12
+3.222100E+01,-6.587000E-12
+3.223100E+01,-6.599000E-12
+3.224100E+01,-6.586000E-12
+3.225100E+01,-6.600000E-12
+3.226100E+01,-6.585000E-12
+3.227100E+01,-6.600000E-12
+3.228100E+01,-6.588000E-12
+3.229100E+01,-6.600000E-12
+3.230100E+01,-6.586000E-12
+3.231100E+01,-6.600000E-12
+3.232100E+01,-6.582000E-12
+3.233100E+01,-6.598000E-12
+3.234100E+01,-6.589000E-12
+3.235100E+01,-6.608000E-12
+3.236100E+01,-6.585000E-12
+3.237100E+01,-6.609000E-12
+3.238100E+01,-6.587000E-12
+3.239100E+01,-6.607000E-12
+3.240100E+01,-6.598000E-12
+3.241100E+01,-6.610000E-12
+3.242100E+01,-6.589000E-12
+3.243100E+01,-6.601000E-12
+3.244100E+01,-6.586000E-12
+3.245100E+01,-6.609000E-12
+3.246100E+01,-6.586000E-12
+3.247100E+01,-6.614000E-12
+3.248100E+01,-6.592000E-12
+3.249100E+01,-6.611000E-12
+3.250100E+01,-6.594000E-12
+3.251100E+01,-6.615000E-12
+3.252100E+01,-6.598000E-12
+3.253100E+01,-6.610000E-12
+3.254100E+01,-6.591000E-12
+3.255100E+01,-6.610000E-12
+3.256100E+01,-6.597000E-12
+3.257100E+01,-6.611000E-12
+3.258100E+01,-6.592000E-12
+3.259100E+01,-6.613000E-12
+3.260100E+01,-6.598000E-12
+3.261100E+01,-6.615000E-12
+3.262100E+01,-6.598000E-12
+3.263100E+01,-6.612000E-12
+3.264100E+01,-6.592000E-12
+3.265100E+01,-6.613000E-12
+3.266100E+01,-6.596000E-12
+3.267100E+01,-6.614000E-12
+3.268100E+01,-6.595000E-12
+3.269100E+01,-6.616000E-12
+3.270100E+01,-6.601000E-12
+3.271100E+01,-6.612000E-12
+3.272100E+01,-6.596000E-12
+3.273100E+01,-6.616000E-12
+3.274100E+01,-6.595000E-12
+3.275100E+01,-6.610000E-12
+3.276100E+01,-6.594000E-12
+3.277100E+01,-6.611000E-12
+3.278100E+01,-6.601000E-12
+3.279100E+01,-6.614000E-12
+3.280100E+01,-6.594000E-12
+3.281100E+01,-6.614000E-12
+3.282100E+01,-6.601000E-12
+3.283100E+01,-6.609000E-12
+3.284100E+01,-6.596000E-12
+3.285100E+01,-6.611000E-12
+3.286100E+01,-6.599000E-12
+3.287100E+01,-6.611000E-12
+3.288100E+01,-6.599000E-12
+3.289100E+01,-6.611000E-12
+3.290100E+01,-6.600000E-12
+3.291100E+01,-6.612000E-12
+3.292100E+01,-6.601000E-12
+3.293100E+01,-6.608000E-12
+3.294100E+01,-6.602000E-12
+3.295100E+01,-6.610000E-12
+3.296100E+01,-6.599000E-12
+3.297100E+01,-6.606000E-12
+3.298100E+01,-6.594000E-12
+3.299100E+01,-6.609000E-12
+3.300100E+01,-6.599000E-12
+3.301100E+01,-6.609000E-12
+3.302100E+01,-6.598000E-12
+3.303100E+01,-6.607000E-12
+3.304100E+01,-6.598000E-12
+3.305100E+01,-6.611000E-12
+3.306100E+01,-6.599000E-12
+3.307100E+01,-6.610000E-12
+3.308100E+01,-6.599000E-12
+3.309100E+01,-6.607000E-12
+3.310100E+01,-6.598000E-12
+3.311100E+01,-6.620000E-12
+3.312100E+01,-6.597000E-12
+3.313100E+01,-6.616000E-12
+3.314100E+01,-6.595000E-12
+3.315100E+01,-6.620000E-12
+3.316100E+01,-6.599000E-12
+3.317100E+01,-6.624000E-12
+3.318100E+01,-6.593000E-12
+3.319100E+01,-6.626000E-12
+3.320100E+01,-6.626000E-12
+3.321100E+01,-6.590000E-12
+3.322100E+01,-6.627000E-12
+3.323100E+01,-6.590000E-12
+3.324100E+01,-6.630000E-12
+3.325100E+01,-6.589000E-12
+3.326100E+01,-6.630000E-12
+3.327100E+01,-6.590000E-12
+3.328100E+01,-6.627000E-12
+3.329100E+01,-6.592000E-12
+3.330100E+01,-6.632000E-12
+3.331100E+01,-6.593000E-12
+3.332100E+01,-6.631000E-12
+3.333100E+01,-6.594000E-12
+3.334100E+01,-6.629000E-12
+3.335100E+01,-6.594000E-12
+3.336100E+01,-6.627000E-12
+3.337100E+01,-6.604000E-12
+3.338100E+01,-6.625000E-12
+3.339100E+01,-6.604000E-12
+3.340100E+01,-6.627000E-12
+3.341100E+01,-6.601000E-12
+3.342100E+01,-6.624000E-12
+3.343100E+01,-6.605000E-12
+3.344100E+01,-6.626000E-12
+3.345100E+01,-6.609000E-12
+3.346100E+01,-6.624000E-12
+3.347100E+01,-6.608000E-12
+3.348100E+01,-6.621000E-12
+3.349100E+01,-6.610000E-12
+3.350100E+01,-6.618000E-12
+3.351100E+01,-6.610000E-12
+3.352100E+01,-6.618000E-12
+3.353100E+01,-6.612000E-12
+3.354100E+01,-6.617000E-12
+3.355100E+01,-6.613000E-12
+3.356100E+01,-6.616000E-12
+3.357100E+01,-6.613000E-12
+3.358100E+01,-6.613000E-12
+3.359100E+01,-6.611000E-12
+3.360100E+01,-6.611000E-12
+3.361100E+01,-6.611000E-12
+3.362100E+01,-6.615000E-12
+3.363100E+01,-6.610000E-12
+3.364100E+01,-6.608000E-12
+3.365100E+01,-6.613000E-12
+3.366100E+01,-6.610000E-12
+3.367100E+01,-6.615000E-12
+3.368100E+01,-6.613000E-12
+3.369100E+01,-6.616000E-12
+3.370100E+01,-6.614000E-12
+3.371100E+01,-6.612000E-12
+3.372100E+01,-6.611000E-12
+3.373100E+01,-6.612000E-12
+3.374100E+01,-6.609000E-12
+3.375100E+01,-6.617000E-12
+3.376100E+01,-6.610000E-12
+3.377100E+01,-6.624000E-12
+3.378100E+01,-6.612000E-12
+3.379100E+01,-6.624000E-12
+3.380100E+01,-6.610000E-12
+3.381100E+01,-6.621000E-12
+3.382100E+01,-6.610000E-12
+3.383100E+01,-6.624000E-12
+3.384100E+01,-6.606000E-12
+3.385100E+01,-6.628000E-12
+3.386100E+01,-6.615000E-12
+3.387100E+01,-6.623000E-12
+3.388100E+01,-6.617000E-12
+3.389100E+01,-6.623000E-12
+3.390100E+01,-6.610000E-12
+3.391100E+01,-6.627000E-12
+3.392100E+01,-6.610000E-12
+3.393100E+01,-6.621000E-12
+3.394100E+01,-6.615000E-12
+3.395100E+01,-6.626000E-12
+3.396100E+01,-6.615000E-12
+3.397100E+01,-6.629000E-12
+3.398100E+01,-6.611000E-12
+3.399100E+01,-6.632000E-12
+3.400100E+01,-6.614000E-12
+3.401100E+01,-6.631000E-12
+3.402100E+01,-6.614000E-12
+3.403100E+01,-6.635000E-12
+3.404100E+01,-6.621000E-12
+3.405100E+01,-6.635000E-12
+3.406100E+01,-6.616000E-12
+3.407100E+01,-6.630000E-12
+3.408100E+01,-6.615000E-12
+3.409100E+01,-6.637000E-12
+3.410100E+01,-6.614000E-12
+3.411100E+01,-6.636000E-12
+3.412100E+01,-6.615000E-12
+3.413100E+01,-6.637000E-12
+3.414100E+01,-6.615000E-12
+3.415100E+01,-6.635000E-12
+3.416100E+01,-6.615000E-12
+3.417100E+01,-6.635000E-12
+3.418100E+01,-6.615000E-12
+3.419100E+01,-6.637000E-12
+3.420100E+01,-6.617000E-12
+3.421100E+01,-6.634000E-12
+3.422100E+01,-6.619000E-12
+3.423100E+01,-6.636000E-12
+3.424100E+01,-6.615000E-12
+3.425100E+01,-6.641000E-12
+3.426100E+01,-6.619000E-12
+3.427100E+01,-6.638000E-12
+3.428100E+01,-6.618000E-12
+3.429100E+01,-6.637000E-12
+3.430100E+01,-6.623000E-12
+3.431100E+01,-6.640000E-12
+3.432100E+01,-6.620000E-12
+3.433100E+01,-6.640000E-12
+3.434100E+01,-6.621000E-12
+3.435100E+01,-6.641000E-12
+3.436100E+01,-6.626000E-12
+3.437100E+01,-6.643000E-12
+3.438100E+01,-6.624000E-12
+3.439100E+01,-6.639000E-12
+3.440100E+01,-6.623000E-12
+3.441100E+01,-6.638000E-12
+3.442100E+01,-6.624000E-12
+3.443100E+01,-6.642000E-12
+3.444100E+01,-6.626000E-12
+3.445100E+01,-6.640000E-12
+3.446100E+01,-6.629000E-12
+3.447100E+01,-6.641000E-12
+3.448100E+01,-6.625000E-12
+3.449100E+01,-6.635000E-12
+3.450100E+01,-6.623000E-12
+3.451100E+01,-6.637000E-12
+3.452100E+01,-6.626000E-12
+3.453100E+01,-6.637000E-12
+3.454100E+01,-6.628000E-12
+3.455100E+01,-6.640000E-12
+3.456100E+01,-6.626000E-12
+3.457100E+01,-6.642000E-12
+3.458100E+01,-6.625000E-12
+3.459100E+01,-6.625000E-12
+3.460100E+01,-6.641000E-12
+3.461100E+01,-6.626000E-12
+3.462100E+01,-6.642000E-12
+3.463100E+01,-6.622000E-12
+3.464100E+01,-6.642000E-12
+3.465100E+01,-6.624000E-12
+3.466100E+01,-6.636000E-12
+3.467100E+01,-6.623000E-12
+3.468100E+01,-6.638000E-12
+3.469100E+01,-6.624000E-12
+3.470100E+01,-6.645000E-12
+3.471100E+01,-6.625000E-12
+3.472100E+01,-6.637000E-12
+3.473100E+01,-6.626000E-12
+3.474100E+01,-6.633000E-12
+3.475100E+01,-6.626000E-12
+3.476100E+01,-6.633000E-12
+3.477100E+01,-6.627000E-12
+3.478100E+01,-6.631000E-12
+3.479100E+01,-6.626000E-12
+3.480100E+01,-6.630000E-12
+3.481100E+01,-6.633000E-12
+3.482100E+01,-6.629000E-12
+3.483100E+01,-6.634000E-12
+3.484100E+01,-6.628000E-12
+3.485100E+01,-6.639000E-12
+3.486100E+01,-6.617000E-12
+3.487100E+01,-6.641000E-12
+3.488100E+01,-6.620000E-12
+3.489100E+01,-6.643000E-12
+3.490100E+01,-6.618000E-12
+3.491100E+01,-6.646000E-12
+3.492100E+01,-6.617000E-12
+3.493100E+01,-6.646000E-12
+3.494100E+01,-6.616000E-12
+3.495100E+01,-6.647000E-12
+3.496100E+01,-6.622000E-12
+3.497100E+01,-6.643000E-12
+3.498100E+01,-6.621000E-12
+3.499100E+01,-6.641000E-12
+3.500100E+01,-6.619000E-12
+3.501100E+01,-6.639000E-12
+3.502100E+01,-6.624000E-12
+3.503100E+01,-6.641000E-12
+3.504100E+01,-6.623000E-12
+3.505100E+01,-6.634000E-12
+3.506100E+01,-6.627000E-12
+3.507100E+01,-6.630000E-12
+3.508100E+01,-6.633000E-12
+3.509100E+01,-6.629000E-12
+3.510100E+01,-6.629000E-12
+3.511100E+01,-6.626000E-12
+3.512100E+01,-6.635000E-12
+3.513100E+01,-6.636000E-12
+3.514100E+01,-6.638000E-12
+3.515100E+01,-6.629000E-12
+3.516100E+01,-6.639000E-12
+3.517100E+01,-6.627000E-12
+3.518100E+01,-6.636000E-12
+3.519100E+01,-6.627000E-12
+3.520100E+01,-6.631000E-12
+3.521100E+01,-6.631000E-12
+3.522100E+01,-6.635000E-12
+3.523100E+01,-6.634000E-12
+3.524100E+01,-6.645000E-12
+3.525100E+01,-6.631000E-12
+3.526100E+01,-6.631000E-12
+3.527100E+01,-6.639000E-12
+3.528100E+01,-6.631000E-12
+3.529100E+01,-6.638000E-12
+3.530100E+01,-6.630000E-12
+3.531100E+01,-6.635000E-12
+3.532100E+01,-6.637000E-12
+3.533100E+01,-6.646000E-12
+3.534100E+01,-6.635000E-12
+3.535100E+01,-6.635000E-12
+3.536100E+01,-6.637000E-12
+3.537100E+01,-6.650000E-12
+3.538100E+01,-6.635000E-12
+3.539100E+01,-6.643000E-12
+3.540100E+01,-6.637000E-12
+3.541100E+01,-6.646000E-12
+3.542100E+01,-6.641000E-12
+3.543100E+01,-6.647000E-12
+3.544100E+01,-6.642000E-12
+3.545100E+01,-6.648000E-12
+3.546100E+01,-6.639000E-12
+3.547100E+01,-6.653000E-12
+3.548100E+01,-6.642000E-12
+3.549100E+01,-6.650000E-12
+3.550100E+01,-6.644000E-12
+3.551100E+01,-6.657000E-12
+3.552100E+01,-6.645000E-12
+3.553100E+01,-6.655000E-12
+3.554100E+01,-6.644000E-12
+3.555100E+01,-6.660000E-12
+3.556100E+01,-6.645000E-12
+3.557100E+01,-6.659000E-12
+3.558100E+01,-6.645000E-12
+3.559100E+01,-6.664000E-12
+3.560100E+01,-6.649000E-12
+3.561100E+01,-6.662000E-12
+3.562100E+01,-6.645000E-12
+3.563100E+01,-6.664000E-12
+3.564100E+01,-6.648000E-12
+3.565100E+01,-6.665000E-12
+3.566100E+01,-6.648000E-12
+3.567100E+01,-6.668000E-12
+3.568100E+01,-6.653000E-12
+3.569100E+01,-6.672000E-12
+3.570100E+01,-6.653000E-12
+3.571100E+01,-6.672000E-12
+3.572100E+01,-6.656000E-12
+3.573100E+01,-6.674000E-12
+3.574100E+01,-6.655000E-12
+3.575100E+01,-6.676000E-12
+3.576100E+01,-6.653000E-12
+3.577100E+01,-6.678000E-12
+3.578100E+01,-6.656000E-12
+3.579100E+01,-6.679000E-12
+3.580100E+01,-6.665000E-12
+3.581100E+01,-6.685000E-12
+3.582100E+01,-6.669000E-12
+3.583100E+01,-6.687000E-12
+3.584100E+01,-6.667000E-12
+3.585100E+01,-6.687000E-12
+3.586100E+01,-6.668000E-12
+3.587100E+01,-6.685000E-12
+3.588100E+01,-6.666000E-12
+3.589100E+01,-6.689000E-12
+3.590100E+01,-6.670000E-12
+3.591100E+01,-6.688000E-12
+3.592100E+01,-6.671000E-12
+3.593100E+01,-6.698000E-12
+3.594100E+01,-6.679000E-12
+3.595100E+01,-6.698000E-12
+3.596100E+01,-6.680000E-12
+3.597100E+01,-6.699000E-12
+3.598100E+01,-6.682000E-12
+3.599100E+01,-6.682000E-12
+3.600100E+01,-6.701000E-12
+3.601100E+01,-6.681000E-12
+3.602100E+01,-6.702000E-12
+3.603100E+01,-6.683000E-12
+3.604100E+01,-6.700000E-12
+3.605100E+01,-6.684000E-12
+3.606100E+01,-6.705000E-12
+3.607100E+01,-6.683000E-12
+3.608100E+01,-6.700000E-12
+3.609100E+01,-6.683000E-12
+3.610100E+01,-6.702000E-12
+3.611100E+01,-6.686000E-12
+3.612100E+01,-6.706000E-12
+3.613100E+01,-6.686000E-12
+3.614100E+01,-6.705000E-12
+3.615100E+01,-6.689000E-12
+3.616100E+01,-6.706000E-12
+3.617100E+01,-6.690000E-12
+3.618100E+01,-6.706000E-12
+3.619100E+01,-6.691000E-12
+3.620100E+01,-6.707000E-12
+3.621100E+01,-6.692000E-12
+3.622100E+01,-6.706000E-12
+3.623100E+01,-6.689000E-12
+3.624100E+01,-6.706000E-12
+3.625100E+01,-6.690000E-12
+3.626100E+01,-6.705000E-12
+3.627100E+01,-6.688000E-12
+3.628100E+01,-6.710000E-12
+3.629100E+01,-6.689000E-12
+3.630100E+01,-6.709000E-12
+3.631100E+01,-6.683000E-12
+3.632100E+01,-6.695000E-12
+3.633100E+01,-6.662000E-12
+3.634100E+01,-6.679000E-12
+3.635100E+01,-6.662000E-12
+3.636100E+01,-6.677000E-12
+3.637100E+01,-6.652000E-12
+3.638100E+01,-6.660000E-12
+3.639100E+01,-6.653000E-12
+3.640100E+01,-6.654000E-12
+3.641100E+01,-6.660000E-12
+3.642100E+01,-6.645000E-12
+3.643100E+01,-6.658000E-12
+3.644100E+01,-6.646000E-12
+3.645100E+01,-6.668000E-12
+3.646100E+01,-6.651000E-12
+3.647100E+01,-6.669000E-12
+3.648100E+01,-6.645000E-12
+3.649100E+01,-6.674000E-12
+3.650100E+01,-6.658000E-12
+3.651100E+01,-6.666000E-12
+3.652100E+01,-6.647000E-12
+3.653100E+01,-6.665000E-12
+3.654100E+01,-6.657000E-12
+3.655100E+01,-6.666000E-12
+3.656100E+01,-6.659000E-12
+3.657100E+01,-6.663000E-12
+3.658100E+01,-6.660000E-12
+3.659100E+01,-6.661000E-12
+3.660100E+01,-6.670000E-12
+3.661100E+01,-6.663000E-12
+3.662100E+01,-6.672000E-12
+3.663100E+01,-6.659000E-12
+3.664100E+01,-6.680000E-12
+3.665100E+01,-6.657000E-12
+3.666100E+01,-6.674000E-12
+3.667100E+01,-6.657000E-12
+3.668100E+01,-6.680000E-12
+3.669100E+01,-6.668000E-12
+3.670100E+01,-6.685000E-12
+3.671100E+01,-6.661000E-12
+3.672100E+01,-6.680000E-12
+3.673100E+01,-6.653000E-12
+3.674100E+01,-6.679000E-12
+3.675100E+01,-6.658000E-12
+3.676100E+01,-6.669000E-12
+3.677100E+01,-6.652000E-12
+3.678100E+01,-6.660000E-12
+3.679100E+01,-6.649000E-12
+3.680100E+01,-6.657000E-12
+3.681100E+01,-6.651000E-12
+3.682100E+01,-6.653000E-12
+3.683100E+01,-6.648000E-12
+3.684100E+01,-6.647000E-12
+3.685100E+01,-6.624000E-12
+3.686100E+01,-6.624000E-12
+3.687100E+01,-6.640000E-12
+3.688100E+01,-6.635000E-12
+3.689100E+01,-6.632000E-12
+3.690100E+01,-6.593000E-12
+3.691100E+01,-6.601000E-12
+3.692100E+01,-6.595000E-12
+3.693100E+01,-6.598000E-12
+3.694100E+01,-6.602000E-12
+3.695100E+01,-6.608000E-12
+3.696100E+01,-6.605000E-12
+3.697100E+01,-6.605000E-12
+3.698100E+01,-6.602000E-12
+3.699100E+01,-6.606000E-12
+3.700100E+01,-6.605000E-12
+3.701100E+01,-6.609000E-12
+3.702100E+01,-6.601000E-12
+3.703100E+01,-6.609000E-12
+3.704100E+01,-6.606000E-12
+3.705100E+01,-6.610000E-12
+3.706100E+01,-6.604000E-12
+3.707100E+01,-6.605000E-12
+3.708100E+01,-6.601000E-12
+3.709100E+01,-6.611000E-12
+3.710100E+01,-6.603000E-12
+3.711100E+01,-6.610000E-12
+3.712100E+01,-6.604000E-12
+3.713100E+01,-6.615000E-12
+3.714100E+01,-6.604000E-12
+3.715100E+01,-6.614000E-12
+3.716100E+01,-6.604000E-12
+3.717100E+01,-6.617000E-12
+3.718100E+01,-6.605000E-12
+3.719100E+01,-6.617000E-12
+3.720100E+01,-6.604000E-12
+3.721100E+01,-6.618000E-12
+3.722100E+01,-6.601000E-12
+3.723100E+01,-6.615000E-12
+3.724100E+01,-6.599000E-12
+3.725100E+01,-6.618000E-12
+3.726100E+01,-6.599000E-12
+3.727100E+01,-6.618000E-12
+3.728100E+01,-6.599000E-12
+3.729100E+01,-6.617000E-12
+3.730100E+01,-6.598000E-12
+3.731100E+01,-6.619000E-12
+3.732100E+01,-6.598000E-12
+3.733100E+01,-6.618000E-12
+3.734100E+01,-6.600000E-12
+3.735100E+01,-6.617000E-12
+3.736100E+01,-6.602000E-12
+3.737100E+01,-6.621000E-12
+3.738100E+01,-6.621000E-12
+3.739100E+01,-6.605000E-12
+3.740100E+01,-6.625000E-12
+3.741100E+01,-6.607000E-12
+3.742100E+01,-6.627000E-12
+3.743100E+01,-6.610000E-12
+3.744100E+01,-6.628000E-12
+3.745100E+01,-6.612000E-12
+3.746100E+01,-6.630000E-12
+3.747100E+01,-6.610000E-12
+3.748100E+01,-6.631000E-12
+3.749100E+01,-6.610000E-12
+3.750100E+01,-6.626000E-12
+3.751100E+01,-6.606000E-12
+3.752100E+01,-6.622000E-12
+3.753100E+01,-6.608000E-12
+3.754100E+01,-6.625000E-12
+3.755100E+01,-6.607000E-12
+3.756100E+01,-6.628000E-12
+3.757100E+01,-6.606000E-12
+3.758100E+01,-6.627000E-12
+3.759100E+01,-6.606000E-12
+3.760100E+01,-6.629000E-12
+3.761100E+01,-6.608000E-12
+3.762100E+01,-6.630000E-12
+3.763100E+01,-6.610000E-12
+3.764100E+01,-6.630000E-12
+3.765100E+01,-6.607000E-12
+3.766100E+01,-6.627000E-12
+3.767100E+01,-6.609000E-12
+3.768100E+01,-6.628000E-12
+3.769100E+01,-6.607000E-12
+3.770100E+01,-6.628000E-12
+3.771100E+01,-6.606000E-12
+3.772100E+01,-6.627000E-12
+3.773100E+01,-6.609000E-12
+3.774100E+01,-6.628000E-12
+3.775100E+01,-6.609000E-12
+3.776100E+01,-6.624000E-12
+3.777100E+01,-6.609000E-12
+3.778100E+01,-6.626000E-12
+3.779100E+01,-6.605000E-12
+3.780100E+01,-6.625000E-12
+3.781100E+01,-6.610000E-12
+3.782100E+01,-6.629000E-12
+3.783100E+01,-6.610000E-12
+3.784100E+01,-6.626000E-12
+3.785100E+01,-6.610000E-12
+3.786100E+01,-6.628000E-12
+3.787100E+01,-6.611000E-12
+3.788100E+01,-6.631000E-12
+3.789100E+01,-6.615000E-12
+3.790100E+01,-6.625000E-12
+3.791100E+01,-6.607000E-12
+3.792100E+01,-6.628000E-12
+3.793100E+01,-6.606000E-12
+3.794100E+01,-6.626000E-12
+3.795100E+01,-6.609000E-12
+3.796100E+01,-6.627000E-12
+3.797100E+01,-6.617000E-12
+3.798100E+01,-6.625000E-12
+3.799100E+01,-6.612000E-12
+3.800100E+01,-6.629000E-12
+3.801100E+01,-6.617000E-12
+3.802100E+01,-6.623000E-12
+3.803100E+01,-6.627000E-12
+3.804100E+01,-6.615000E-12
+3.805100E+01,-6.626000E-12
+3.806100E+01,-6.617000E-12
+3.807100E+01,-6.628000E-12
+3.808100E+01,-6.623000E-12
+3.809100E+01,-6.631000E-12
+3.810100E+01,-6.631000E-12
+3.811100E+01,-6.620000E-12
+3.812100E+01,-6.631000E-12
+3.813100E+01,-6.614000E-12
+3.814100E+01,-6.632000E-12
+3.815100E+01,-6.601000E-12
+3.816100E+01,-6.632000E-12
+3.817100E+01,-6.589000E-12
+3.818100E+01,-6.630000E-12
+3.819100E+01,-6.593000E-12
+3.820100E+01,-6.620000E-12
+3.821100E+01,-6.594000E-12
+3.822100E+01,-6.572000E-12
+3.823100E+01,-6.566000E-12
+3.824100E+01,-6.562000E-12
+3.825100E+01,-6.567000E-12
+3.826100E+01,-6.552000E-12
+3.827100E+01,-6.575000E-12
+3.828100E+01,-6.551000E-12
+3.829100E+01,-6.572000E-12
+3.830100E+01,-6.550000E-12
+3.831100E+01,-6.568000E-12
+3.832100E+01,-6.549000E-12
+3.833100E+01,-6.565000E-12
+3.834100E+01,-6.564000E-12
+3.835100E+01,-6.560000E-12
+3.836100E+01,-6.565000E-12
+3.837100E+01,-6.556000E-12
+3.838100E+01,-6.569000E-12
+3.839100E+01,-6.549000E-12
+3.840100E+01,-6.569000E-12
+3.841100E+01,-6.555000E-12
+3.842100E+01,-6.569000E-12
+3.843100E+01,-6.553000E-12
+3.844100E+01,-6.576000E-12
+3.845100E+01,-6.562000E-12
+3.846100E+01,-6.580000E-12
+3.847100E+01,-6.559000E-12
+3.848100E+01,-6.575000E-12
+3.849100E+01,-6.566000E-12
+3.850100E+01,-6.574000E-12
+3.851100E+01,-6.565000E-12
+3.852100E+01,-6.571000E-12
+3.853100E+01,-6.566000E-12
+3.854100E+01,-6.573000E-12
+3.855100E+01,-6.566000E-12
+3.856100E+01,-6.569000E-12
+3.857100E+01,-6.567000E-12
+3.858100E+01,-6.568000E-12
+3.859100E+01,-6.568000E-12
+3.860100E+01,-6.561000E-12
+3.861100E+01,-6.563000E-12
+3.862100E+01,-6.562000E-12
+3.863100E+01,-6.561000E-12
+3.864100E+01,-6.560000E-12
+3.865100E+01,-6.564000E-12
+3.866100E+01,-6.560000E-12
+3.867100E+01,-6.564000E-12
+3.868100E+01,-6.557000E-12
+3.869100E+01,-6.561000E-12
+3.870100E+01,-6.511000E-12
+3.871100E+01,-6.521000E-12
+3.872100E+01,-6.511000E-12
+3.873100E+01,-6.517000E-12
+3.874100E+01,-6.511000E-12
+3.875100E+01,-6.521000E-12
+3.876100E+01,-6.513000E-12
+3.877100E+01,-6.523000E-12
+3.878100E+01,-6.523000E-12
+3.879100E+01,-6.514000E-12
+3.880100E+01,-6.527000E-12
+3.881100E+01,-6.513000E-12
+3.882100E+01,-6.528000E-12
+3.883100E+01,-6.516000E-12
+3.884100E+01,-6.529000E-12
+3.885100E+01,-6.514000E-12
+3.886100E+01,-6.528000E-12
+3.887100E+01,-6.515000E-12
+3.888100E+01,-6.530000E-12
+3.889100E+01,-6.515000E-12
+3.890100E+01,-6.530000E-12
+3.891100E+01,-6.515000E-12
+3.892100E+01,-6.531000E-12
+3.893100E+01,-6.514000E-12
+3.894100E+01,-6.534000E-12
+3.895100E+01,-6.517000E-12
+3.896100E+01,-6.533000E-12
+3.897100E+01,-6.509000E-12
+3.898100E+01,-6.527000E-12
+3.899100E+01,-6.509000E-12
+3.900100E+01,-6.524000E-12
+3.901100E+01,-6.508000E-12
+3.902100E+01,-6.528000E-12
+3.903100E+01,-6.508000E-12
+3.904100E+01,-6.529000E-12
+3.905100E+01,-6.508000E-12
+3.906100E+01,-6.529000E-12
+3.907100E+01,-6.509000E-12
+3.908100E+01,-6.526000E-12
+3.909100E+01,-6.509000E-12
+3.910100E+01,-6.529000E-12
+3.911100E+01,-6.509000E-12
+3.912100E+01,-6.529000E-12
+3.913100E+01,-6.511000E-12
+3.914100E+01,-6.526000E-12
+3.915100E+01,-6.508000E-12
+3.916100E+01,-6.530000E-12
+3.917100E+01,-6.508000E-12
+3.918100E+01,-6.528000E-12
+3.919100E+01,-6.511000E-12
+3.920100E+01,-6.531000E-12
+3.921100E+01,-6.512000E-12
+3.922100E+01,-6.530000E-12
+3.923100E+01,-6.515000E-12
+3.924100E+01,-6.530000E-12
+3.925100E+01,-6.513000E-12
+3.926100E+01,-6.531000E-12
+3.927100E+01,-6.503000E-12
+3.928100E+01,-6.529000E-12
+3.929100E+01,-6.507000E-12
+3.930100E+01,-6.526000E-12
+3.931100E+01,-6.509000E-12
+3.932100E+01,-6.534000E-12
+3.933100E+01,-6.503000E-12
+3.934100E+01,-6.524000E-12
+3.935100E+01,-6.507000E-12
+3.936100E+01,-6.521000E-12
+3.937100E+01,-6.509000E-12
+3.938100E+01,-6.529000E-12
+3.939100E+01,-6.505000E-12
+3.940100E+01,-6.527000E-12
+3.941100E+01,-6.502000E-12
+3.942100E+01,-6.525000E-12
+3.943100E+01,-6.501000E-12
+3.944100E+01,-6.518000E-12
+3.945100E+01,-6.507000E-12
+3.946100E+01,-6.517000E-12
+3.947100E+01,-6.509000E-12
+3.948100E+01,-6.520000E-12
+3.949100E+01,-6.504000E-12
+3.950100E+01,-6.518000E-12
+3.951100E+01,-6.502000E-12
+3.952100E+01,-6.524000E-12
+3.953100E+01,-6.505000E-12
+3.954100E+01,-6.521000E-12
+3.955100E+01,-6.507000E-12
+3.956100E+01,-6.527000E-12
+3.957100E+01,-6.501000E-12
+3.958100E+01,-6.520000E-12
+3.959100E+01,-6.505000E-12
+3.960100E+01,-6.519000E-12
+3.961100E+01,-6.511000E-12
+3.962100E+01,-6.511000E-12
+3.963100E+01,-6.510000E-12
+3.964100E+01,-6.509000E-12
+3.965100E+01,-6.519000E-12
+3.966100E+01,-6.510000E-12
+3.967100E+01,-6.520000E-12
+3.968100E+01,-6.509000E-12
+3.969100E+01,-6.509000E-12
+3.970100E+01,-6.519000E-12
+3.971100E+01,-6.500000E-12
+3.972100E+01,-6.521000E-12
+3.973100E+01,-6.487000E-12
+3.974100E+01,-6.524000E-12
+3.975100E+01,-6.482000E-12
+3.976100E+01,-6.522000E-12
+3.977100E+01,-6.492000E-12
+3.978100E+01,-6.504000E-12
+3.979100E+01,-6.504000E-12
+3.980100E+01,-6.502000E-12
+3.981100E+01,-6.514000E-12
+3.982100E+01,-6.494000E-12
+3.983100E+01,-6.521000E-12
+3.984100E+01,-6.492000E-12
+3.985100E+01,-6.514000E-12
+3.986100E+01,-6.504000E-12
+3.987100E+01,-6.506000E-12
+3.988100E+01,-6.518000E-12
+3.989100E+01,-6.499000E-12
+3.990100E+01,-6.527000E-12
+3.991100E+01,-6.487000E-12
+3.992100E+01,-6.524000E-12
+3.993100E+01,-6.491000E-12
+3.994100E+01,-6.515000E-12
+3.995100E+01,-6.494000E-12
+3.996100E+01,-6.506000E-12
+3.997100E+01,-6.507000E-12
+3.998100E+01,-6.500000E-12
+3.999100E+01,-6.511000E-12
+4.000100E+01,-6.498000E-12
+4.001100E+01,-6.509000E-12
+4.002100E+01,-6.501000E-12
+4.003100E+01,-6.504000E-12
+4.004100E+01,-6.503000E-12
+4.005100E+01,-6.501000E-12
+4.006100E+01,-6.509000E-12
+4.007100E+01,-6.501000E-12
+4.008100E+01,-6.512000E-12
+4.009100E+01,-6.499000E-12
+4.010100E+01,-6.509000E-12
+4.011100E+01,-6.498000E-12
+4.012100E+01,-6.506000E-12
+4.013100E+01,-6.503000E-12
+4.014100E+01,-6.505000E-12
+4.015100E+01,-6.502000E-12
+4.016100E+01,-6.484000E-12
+4.017100E+01,-6.488000E-12
+4.018100E+01,-6.488000E-12
+4.019100E+01,-6.483000E-12
+4.020100E+01,-6.489000E-12
+4.021100E+01,-6.486000E-12
+4.022100E+01,-6.486000E-12
+4.023100E+01,-6.486000E-12
+4.024100E+01,-6.490000E-12
+4.025100E+01,-6.490000E-12
+4.026100E+01,-6.496000E-12
+4.027100E+01,-6.493000E-12
+4.028100E+01,-6.497000E-12
+4.029100E+01,-6.492000E-12
+4.030100E+01,-6.498000E-12
+4.031100E+01,-6.488000E-12
+4.032100E+01,-6.494000E-12
+4.033100E+01,-6.488000E-12
+4.034100E+01,-6.496000E-12
+4.035100E+01,-6.487000E-12
+4.036100E+01,-6.494000E-12
+4.037100E+01,-6.488000E-12
+4.038100E+01,-6.497000E-12
+4.039100E+01,-6.490000E-12
+4.040100E+01,-6.503000E-12
+4.041100E+01,-6.493000E-12
+4.042100E+01,-6.503000E-12
+4.043100E+01,-6.490000E-12
+4.044100E+01,-6.503000E-12
+4.045100E+01,-6.491000E-12
+4.046100E+01,-6.504000E-12
+4.047100E+01,-6.492000E-12
+4.048100E+01,-6.508000E-12
+4.049100E+01,-6.492000E-12
+4.050100E+01,-6.509000E-12
+4.051100E+01,-6.492000E-12
+4.052100E+01,-6.511000E-12
+4.053100E+01,-6.496000E-12
+4.054100E+01,-6.515000E-12
+4.055100E+01,-6.493000E-12
+4.056100E+01,-6.514000E-12
+4.057100E+01,-6.493000E-12
+4.058100E+01,-6.512000E-12
+4.059100E+01,-6.493000E-12
+4.060100E+01,-6.515000E-12
+4.061100E+01,-6.493000E-12
+4.062100E+01,-6.515000E-12
+4.063100E+01,-6.497000E-12
+4.064100E+01,-6.517000E-12
+4.065100E+01,-6.500000E-12
+4.066100E+01,-6.522000E-12
+4.067100E+01,-6.501000E-12
+4.068100E+01,-6.519000E-12
+4.069100E+01,-6.498000E-12
+4.070100E+01,-6.522000E-12
+4.071100E+01,-6.505000E-12
+4.072100E+01,-6.524000E-12
+4.073100E+01,-6.509000E-12
+4.074100E+01,-6.521000E-12
+4.075100E+01,-6.505000E-12
+4.076100E+01,-6.531000E-12
+4.077100E+01,-6.512000E-12
+4.078100E+01,-6.525000E-12
+4.079100E+01,-6.510000E-12
+4.080100E+01,-6.528000E-12
+4.081100E+01,-6.510000E-12
+4.082100E+01,-6.534000E-12
+4.083100E+01,-6.516000E-12
+4.084100E+01,-6.537000E-12
+4.085100E+01,-6.511000E-12
+4.086100E+01,-6.530000E-12
+4.087100E+01,-6.512000E-12
+4.088100E+01,-6.533000E-12
+4.089100E+01,-6.513000E-12
+4.090100E+01,-6.533000E-12
+4.091100E+01,-6.516000E-12
+4.092100E+01,-6.533000E-12
+4.093100E+01,-6.514000E-12
+4.094100E+01,-6.526000E-12
+4.095100E+01,-6.519000E-12
+4.096100E+01,-6.532000E-12
+4.097100E+01,-6.522000E-12
+4.098100E+01,-6.532000E-12
+4.099100E+01,-6.517000E-12
+4.100100E+01,-6.531000E-12
+4.101100E+01,-6.518000E-12
+4.102100E+01,-6.539000E-12
+4.103100E+01,-6.518000E-12
+4.104100E+01,-6.531000E-12
+4.105100E+01,-6.515000E-12
+4.106100E+01,-6.531000E-12
+4.107100E+01,-6.512000E-12
+4.108100E+01,-6.525000E-12
+4.109100E+01,-6.510000E-12
+4.110100E+01,-6.525000E-12
+4.111100E+01,-6.512000E-12
+4.112100E+01,-6.521000E-12
+4.113100E+01,-6.511000E-12
+4.114100E+01,-6.521000E-12
+4.115100E+01,-6.514000E-12
+4.116100E+01,-6.525000E-12
+4.117100E+01,-6.511000E-12
+4.118100E+01,-6.529000E-12
+4.119100E+01,-6.508000E-12
+4.120100E+01,-6.535000E-12
+4.121100E+01,-6.516000E-12
+4.122100E+01,-6.539000E-12
+4.123100E+01,-6.528000E-12
+4.124100E+01,-6.530000E-12
+4.125100E+01,-6.535000E-12
+4.126100E+01,-6.530000E-12
+4.127100E+01,-6.534000E-12
+4.128100E+01,-6.537000E-12
+4.129100E+01,-6.525000E-12
+4.130100E+01,-6.547000E-12
+4.131100E+01,-6.513000E-12
+4.132100E+01,-6.547000E-12
+4.133100E+01,-6.514000E-12
+4.134100E+01,-6.529000E-12
+4.135100E+01,-6.526000E-12
+4.136100E+01,-6.521000E-12
+4.137100E+01,-6.541000E-12
+4.138100E+01,-6.521000E-12
+4.139100E+01,-6.537000E-12
+4.140100E+01,-6.536000E-12
+4.141100E+01,-6.523000E-12
+4.142100E+01,-6.539000E-12
+4.143100E+01,-6.509000E-12
+4.144100E+01,-6.546000E-12
+4.145100E+01,-6.509000E-12
+4.146100E+01,-6.535000E-12
+4.147100E+01,-6.528000E-12
+4.148100E+01,-6.530000E-12
+4.149100E+01,-6.537000E-12
+4.150100E+01,-6.524000E-12
+4.151100E+01,-6.544000E-12
+4.152100E+01,-6.525000E-12
+4.153100E+01,-6.541000E-12
+4.154100E+01,-6.539000E-12
+4.155100E+01,-6.528000E-12
+4.156100E+01,-6.546000E-12
+4.157100E+01,-6.527000E-12
+4.158100E+01,-6.527000E-12
+4.159100E+01,-6.551000E-12
+4.160100E+01,-6.513000E-12
+4.161100E+01,-6.542000E-12
+4.162100E+01,-6.523000E-12
+4.163100E+01,-6.536000E-12
+4.164100E+01,-6.528000E-12
+4.165100E+01,-6.526000E-12
+4.166100E+01,-6.527000E-12
+4.167100E+01,-6.526000E-12
+4.168100E+01,-6.530000E-12
+4.169100E+01,-6.530000E-12
+4.170100E+01,-6.525000E-12
+4.171100E+01,-6.532000E-12
+4.172100E+01,-6.523000E-12
+4.173100E+01,-6.532000E-12
+4.174100E+01,-6.525000E-12
+4.175100E+01,-6.536000E-12
+4.176100E+01,-6.526000E-12
+4.177100E+01,-6.531000E-12
+4.178100E+01,-6.526000E-12
+4.179100E+01,-6.530000E-12
+4.180100E+01,-6.526000E-12
+4.181100E+01,-6.530000E-12
+4.182100E+01,-6.529000E-12
+4.183100E+01,-6.528000E-12
+4.184100E+01,-6.526000E-12
+4.185100E+01,-6.528000E-12
+4.186100E+01,-6.526000E-12
+4.187100E+01,-6.527000E-12
+4.188100E+01,-6.526000E-12
+4.189100E+01,-6.527000E-12
+4.190100E+01,-6.527000E-12
+4.191100E+01,-6.527000E-12
+4.192100E+01,-6.530000E-12
+4.193100E+01,-6.528000E-12
+4.194100E+01,-6.532000E-12
+4.195100E+01,-6.526000E-12
+4.196100E+01,-6.532000E-12
+4.197100E+01,-6.527000E-12
+4.198100E+01,-6.531000E-12
+4.199100E+01,-6.526000E-12
+4.200100E+01,-6.534000E-12
+4.201100E+01,-6.527000E-12
+4.202100E+01,-6.537000E-12
+4.203100E+01,-6.526000E-12
+4.204100E+01,-6.537000E-12
+4.205100E+01,-6.526000E-12
+4.206100E+01,-6.533000E-12
+4.207100E+01,-6.518000E-12
+4.208100E+01,-6.531000E-12
+4.209100E+01,-6.517000E-12
+4.210100E+01,-6.532000E-12
+4.211100E+01,-6.517000E-12
+4.212100E+01,-6.530000E-12
+4.213100E+01,-6.514000E-12
+4.214100E+01,-6.532000E-12
+4.215100E+01,-6.517000E-12
+4.216100E+01,-6.536000E-12
+4.217100E+01,-6.510000E-12
+4.218100E+01,-6.526000E-12
+4.219100E+01,-6.513000E-12
+4.220100E+01,-6.531000E-12
+4.221100E+01,-6.509000E-12
+4.222100E+01,-6.530000E-12
+4.223100E+01,-6.502000E-12
+4.224100E+01,-6.527000E-12
+4.225100E+01,-6.503000E-12
+4.226100E+01,-6.527000E-12
+4.227100E+01,-6.504000E-12
+4.228100E+01,-6.528000E-12
+4.229100E+01,-6.506000E-12
+4.230100E+01,-6.525000E-12
+4.231100E+01,-6.504000E-12
+4.232100E+01,-6.525000E-12
+4.233100E+01,-6.504000E-12
+4.234100E+01,-6.530000E-12
+4.235100E+01,-6.503000E-12
+4.236100E+01,-6.524000E-12
+4.237100E+01,-6.504000E-12
+4.238100E+01,-6.520000E-12
+4.239100E+01,-6.504000E-12
+4.240100E+01,-6.525000E-12
+4.241100E+01,-6.502000E-12
+4.242100E+01,-6.524000E-12
+4.243100E+01,-6.500000E-12
+4.244100E+01,-6.521000E-12
+4.245100E+01,-6.504000E-12
+4.246100E+01,-6.524000E-12
+4.247100E+01,-6.509000E-12
+4.248100E+01,-6.523000E-12
+4.249100E+01,-6.503000E-12
+4.250100E+01,-6.520000E-12
+4.251100E+01,-6.505000E-12
+4.252100E+01,-6.520000E-12
+4.253100E+01,-6.506000E-12
+4.254100E+01,-6.519000E-12
+4.255100E+01,-6.502000E-12
+4.256100E+01,-6.519000E-12
+4.257100E+01,-6.504000E-12
+4.258100E+01,-6.516000E-12
+4.259100E+01,-6.505000E-12
+4.260100E+01,-6.516000E-12
+4.261100E+01,-6.503000E-12
+4.262100E+01,-6.519000E-12
+4.263100E+01,-6.503000E-12
+4.264100E+01,-6.518000E-12
+4.265100E+01,-6.505000E-12
+4.266100E+01,-6.518000E-12
+4.267100E+01,-6.506000E-12
+4.268100E+01,-6.517000E-12
+4.269100E+01,-6.507000E-12
+4.270100E+01,-6.516000E-12
+4.271100E+01,-6.501000E-12
+4.272100E+01,-6.519000E-12
+4.273100E+01,-6.500000E-12
+4.274100E+01,-6.517000E-12
+4.275100E+01,-6.504000E-12
+4.276100E+01,-6.514000E-12
+4.277100E+01,-6.506000E-12
+4.278100E+01,-6.507000E-12
+4.279100E+01,-6.510000E-12
+4.280100E+01,-6.504000E-12
+4.281100E+01,-6.500000E-12
+4.282100E+01,-6.516000E-12
+4.283100E+01,-6.497000E-12
+4.284100E+01,-6.520000E-12
+4.285100E+01,-6.489000E-12
+4.286100E+01,-6.508000E-12
+4.287100E+01,-6.501000E-12
+4.288100E+01,-6.501000E-12
+4.289100E+01,-6.515000E-12
+4.290100E+01,-6.500000E-12
+4.291100E+01,-6.512000E-12
+4.292100E+01,-6.511000E-12
+4.293100E+01,-6.496000E-12
+4.294100E+01,-6.525000E-12
+4.295100E+01,-6.483000E-12
+4.296100E+01,-6.522000E-12
+4.297100E+01,-6.488000E-12
+4.298100E+01,-6.504000E-12
+4.299100E+01,-6.504000E-12
+4.300100E+01,-6.505000E-12
+4.301100E+01,-6.500000E-12
+4.302100E+01,-6.513000E-12
+4.303100E+01,-6.494000E-12
+4.304100E+01,-6.507000E-12
+4.305100E+01,-6.510000E-12
+4.306100E+01,-6.498000E-12
+4.307100E+01,-6.516000E-12
+4.308100E+01,-6.479000E-12
+4.309100E+01,-6.520000E-12
+4.310100E+01,-6.483000E-12
+4.311100E+01,-6.500000E-12
+4.312100E+01,-6.496000E-12
+4.313100E+01,-6.488000E-12
+4.314100E+01,-6.503000E-12
+4.315100E+01,-6.501000E-12
+4.316100E+01,-6.491000E-12
+4.317100E+01,-6.509000E-12
+4.318100E+01,-6.482000E-12
+4.319100E+01,-6.510000E-12
+4.320100E+01,-6.488000E-12
+4.321100E+01,-6.498000E-12
+4.322100E+01,-6.495000E-12
+4.323100E+01,-6.493000E-12
+4.324100E+01,-6.500000E-12
+4.325100E+01,-6.499000E-12
+4.326100E+01,-6.490000E-12
+4.327100E+01,-6.504000E-12
+4.328100E+01,-6.490000E-12
+4.329100E+01,-6.501000E-12
+4.330100E+01,-6.491000E-12
+4.331100E+01,-6.499000E-12
+4.332100E+01,-6.496000E-12
+4.333100E+01,-6.497000E-12
+4.334100E+01,-6.492000E-12
+4.335100E+01,-6.497000E-12
+4.336100E+01,-6.494000E-12
+4.337100E+01,-6.495000E-12
+4.338100E+01,-6.493000E-12
+4.339100E+01,-6.497000E-12
+4.340100E+01,-6.493000E-12
+4.341100E+01,-6.496000E-12
+4.342100E+01,-6.493000E-12
+4.343100E+01,-6.498000E-12
+4.344100E+01,-6.495000E-12
+4.345100E+01,-6.498000E-12
+4.346100E+01,-6.503000E-12
+4.347100E+01,-6.496000E-12
+4.348100E+01,-6.499000E-12
+4.349100E+01,-6.495000E-12
+4.350100E+01,-6.496000E-12
+4.351100E+01,-6.493000E-12
+4.352100E+01,-6.505000E-12
+4.353100E+01,-6.493000E-12
+4.354100E+01,-6.504000E-12
+4.355100E+01,-6.495000E-12
+4.356100E+01,-6.498000E-12
+4.357100E+01,-6.496000E-12
+4.358100E+01,-6.504000E-12
+4.359100E+01,-6.497000E-12
+4.360100E+01,-6.509000E-12
+4.361100E+01,-6.494000E-12
+4.362100E+01,-6.509000E-12
+4.363100E+01,-6.498000E-12
+4.364100E+01,-6.508000E-12
+4.365100E+01,-6.487000E-12
+4.366100E+01,-6.500000E-12
+4.367100E+01,-6.499000E-12
+4.368100E+01,-6.517000E-12
+4.369100E+01,-6.494000E-12
+4.370100E+01,-6.518000E-12
+4.371100E+01,-6.498000E-12
+4.372100E+01,-6.518000E-12
+4.373100E+01,-6.498000E-12
+4.374100E+01,-6.514000E-12
+4.375100E+01,-6.494000E-12
+4.376100E+01,-6.511000E-12
+4.377100E+01,-6.498000E-12
+4.378100E+01,-6.516000E-12
+4.379100E+01,-6.493000E-12
+4.380100E+01,-6.526000E-12
+4.381100E+01,-6.504000E-12
+4.382100E+01,-6.524000E-12
+4.383100E+01,-6.506000E-12
+4.384100E+01,-6.534000E-12
+4.385100E+01,-6.511000E-12
+4.386100E+01,-6.531000E-12
+4.387100E+01,-6.512000E-12
+4.388100E+01,-6.534000E-12
+4.389100E+01,-6.514000E-12
+4.390100E+01,-6.531000E-12
+4.391100E+01,-6.510000E-12
+4.392100E+01,-6.537000E-12
+4.393100E+01,-6.516000E-12
+4.394100E+01,-6.534000E-12
+4.395100E+01,-6.518000E-12
+4.396100E+01,-6.535000E-12
+4.397100E+01,-6.513000E-12
+4.398100E+01,-6.533000E-12
+4.399100E+01,-6.516000E-12
+4.400100E+01,-6.531000E-12
+4.401100E+01,-6.517000E-12
+4.402100E+01,-6.537000E-12
+4.403100E+01,-6.516000E-12
+4.404100E+01,-6.552000E-12
+4.405100E+01,-6.538000E-12
+4.406100E+01,-6.556000E-12
+4.407100E+01,-6.541000E-12
+4.408100E+01,-6.556000E-12
+4.409100E+01,-6.541000E-12
+4.410100E+01,-6.555000E-12
+4.411100E+01,-6.541000E-12
+4.412100E+01,-6.557000E-12
+4.413100E+01,-6.542000E-12
+4.414100E+01,-6.561000E-12
+4.415100E+01,-6.550000E-12
+4.416100E+01,-6.563000E-12
+4.417100E+01,-6.546000E-12
+4.418100E+01,-6.562000E-12
+4.419100E+01,-6.547000E-12
+4.420100E+01,-6.561000E-12
+4.421100E+01,-6.549000E-12
+4.422100E+01,-6.557000E-12
+4.423100E+01,-6.551000E-12
+4.424100E+01,-6.559000E-12
+4.425100E+01,-6.551000E-12
+4.426100E+01,-6.564000E-12
+4.427100E+01,-6.552000E-12
+4.428100E+01,-6.566000E-12
+4.429100E+01,-6.548000E-12
+4.430100E+01,-6.565000E-12
+4.431100E+01,-6.546000E-12
+4.432100E+01,-6.568000E-12
+4.433100E+01,-6.544000E-12
+4.434100E+01,-6.563000E-12
+4.435100E+01,-6.548000E-12
+4.436100E+01,-6.555000E-12
+4.437100E+01,-6.550000E-12
+4.438100E+01,-6.552000E-12
+4.439100E+01,-6.552000E-12
+4.440100E+01,-6.559000E-12
+4.441100E+01,-6.552000E-12
+4.442100E+01,-6.556000E-12
+4.443100E+01,-6.556000E-12
+4.444100E+01,-6.549000E-12
+4.445100E+01,-6.562000E-12
+4.446100E+01,-6.546000E-12
+4.447100E+01,-6.570000E-12
+4.448100E+01,-6.533000E-12
+4.449100E+01,-6.569000E-12
+4.450100E+01,-6.537000E-12
+4.451100E+01,-6.565000E-12
+4.452100E+01,-6.547000E-12
+4.453100E+01,-6.550000E-12
+4.454100E+01,-6.554000E-12
+4.455100E+01,-6.545000E-12
+4.456100E+01,-6.568000E-12
+4.457100E+01,-6.544000E-12
+4.458100E+01,-6.569000E-12
+4.459100E+01,-6.547000E-12
+4.460100E+01,-6.559000E-12
+4.461100E+01,-6.562000E-12
+4.462100E+01,-6.549000E-12
+4.463100E+01,-6.570000E-12
+4.464100E+01,-6.545000E-12
+4.465100E+01,-6.580000E-12
+4.466100E+01,-6.534000E-12
+4.467100E+01,-6.574000E-12
+4.468100E+01,-6.540000E-12
+4.469100E+01,-6.558000E-12
+4.470100E+01,-6.544000E-12
+4.471100E+01,-6.552000E-12
+4.472100E+01,-6.554000E-12
+4.473100E+01,-6.547000E-12
+4.474100E+01,-6.557000E-12
+4.475100E+01,-6.546000E-12
+4.476100E+01,-6.560000E-12
+4.477100E+01,-6.548000E-12
+4.478100E+01,-6.554000E-12
+4.479100E+01,-6.556000E-12
+4.480100E+01,-6.546000E-12
+4.481100E+01,-6.562000E-12
+4.482100E+01,-6.540000E-12
+4.483100E+01,-6.559000E-12
+4.484100E+01,-6.536000E-12
+4.485100E+01,-6.551000E-12
+4.486100E+01,-6.539000E-12
+4.487100E+01,-6.548000E-12
+4.488100E+01,-6.539000E-12
+4.489100E+01,-6.548000E-12
+4.490100E+01,-6.546000E-12
+4.491100E+01,-6.542000E-12
+4.492100E+01,-6.538000E-12
+4.493100E+01,-6.539000E-12
+4.494100E+01,-6.539000E-12
+4.495100E+01,-6.536000E-12
+4.496100E+01,-6.531000E-12
+4.497100E+01,-6.532000E-12
+4.498100E+01,-6.533000E-12
+4.499100E+01,-6.532000E-12
+4.500100E+01,-6.530000E-12
+4.501100E+01,-6.535000E-12
+4.502100E+01,-6.532000E-12
+4.503100E+01,-6.534000E-12
+4.504100E+01,-6.537000E-12
+4.505100E+01,-6.530000E-12
+4.506100E+01,-6.543000E-12
+4.507100E+01,-6.530000E-12
+4.508100E+01,-6.537000E-12
+4.509100E+01,-6.534000E-12
+4.510100E+01,-6.539000E-12
+4.511100E+01,-6.537000E-12
+4.512100E+01,-6.541000E-12
+4.513100E+01,-6.535000E-12
+4.514100E+01,-6.543000E-12
+4.515100E+01,-6.528000E-12
+4.516100E+01,-6.544000E-12
+4.517100E+01,-6.537000E-12
+4.518100E+01,-6.545000E-12
+4.519100E+01,-6.536000E-12
+4.520100E+01,-6.552000E-12
+4.521100E+01,-6.536000E-12
+4.522100E+01,-6.548000E-12
+4.523100E+01,-6.531000E-12
+4.524100E+01,-6.546000E-12
+4.525100E+01,-6.536000E-12
+4.526100E+01,-6.549000E-12
+4.527100E+01,-6.531000E-12
+4.528100E+01,-6.544000E-12
+4.529100E+01,-6.528000E-12
+4.530100E+01,-6.543000E-12
+4.531100E+01,-6.528000E-12
+4.532100E+01,-6.544000E-12
+4.533100E+01,-6.530000E-12
+4.534100E+01,-6.547000E-12
+4.535100E+01,-6.526000E-12
+4.536100E+01,-6.543000E-12
+4.537100E+01,-6.525000E-12
+4.538100E+01,-6.544000E-12
+4.539100E+01,-6.526000E-12
+4.540100E+01,-6.542000E-12
+4.541100E+01,-6.524000E-12
+4.542100E+01,-6.544000E-12
+4.543100E+01,-6.523000E-12
+4.544100E+01,-6.543000E-12
+4.545100E+01,-6.526000E-12
+4.546100E+01,-6.545000E-12
+4.547100E+01,-6.524000E-12
+4.548100E+01,-6.543000E-12
+4.549100E+01,-6.523000E-12
+4.550100E+01,-6.540000E-12
+4.551100E+01,-6.523000E-12
+4.552100E+01,-6.541000E-12
+4.553100E+01,-6.522000E-12
+4.554100E+01,-6.536000E-12
+4.555100E+01,-6.517000E-12
+4.556100E+01,-6.536000E-12
+4.557100E+01,-6.518000E-12
+4.558100E+01,-6.534000E-12
+4.559100E+01,-6.515000E-12
+4.560100E+01,-6.535000E-12
+4.561100E+01,-6.520000E-12
+4.562100E+01,-6.534000E-12
+4.563100E+01,-6.519000E-12
+4.564100E+01,-6.531000E-12
+4.565100E+01,-6.516000E-12
+4.566100E+01,-6.531000E-12
+4.567100E+01,-6.520000E-12
+4.568100E+01,-6.535000E-12
+4.569100E+01,-6.517000E-12
+4.570100E+01,-6.533000E-12
+4.571100E+01,-6.518000E-12
+4.572100E+01,-6.530000E-12
+4.573100E+01,-6.517000E-12
+4.574100E+01,-6.531000E-12
+4.575100E+01,-6.515000E-12
+4.576100E+01,-6.531000E-12
+4.577100E+01,-6.516000E-12
+4.578100E+01,-6.530000E-12
+4.579100E+01,-6.530000E-12
+4.580100E+01,-6.516000E-12
+4.581100E+01,-6.530000E-12
+4.582100E+01,-6.516000E-12
+4.583100E+01,-6.527000E-12
+4.584100E+01,-6.513000E-12
+4.585100E+01,-6.529000E-12
+4.586100E+01,-6.521000E-12
+4.587100E+01,-6.532000E-12
+4.588100E+01,-6.516000E-12
+4.589100E+01,-6.534000E-12
+4.590100E+01,-6.520000E-12
+4.591100E+01,-6.535000E-12
+4.592100E+01,-6.525000E-12
+4.593100E+01,-6.531000E-12
+4.594100E+01,-6.526000E-12
+4.595100E+01,-6.530000E-12
+4.596100E+01,-6.528000E-12
+4.597100E+01,-6.534000E-12
+4.598100E+01,-6.520000E-12
+4.599100E+01,-6.538000E-12
+4.600100E+01,-6.516000E-12
+4.601100E+01,-6.541000E-12
+4.602100E+01,-6.519000E-12
+4.603100E+01,-6.542000E-12
+4.604100E+01,-6.522000E-12
+4.605100E+01,-6.530000E-12
+4.606100E+01,-6.527000E-12
+4.607100E+01,-6.518000E-12
+4.608100E+01,-6.537000E-12
+4.609100E+01,-6.519000E-12
+4.610100E+01,-6.534000E-12
+4.611100E+01,-6.527000E-12
+4.612100E+01,-6.500000E-12
+4.613100E+01,-6.509000E-12
+4.614100E+01,-6.489000E-12
+4.615100E+01,-6.516000E-12
+4.616100E+01,-6.484000E-12
+4.617100E+01,-6.522000E-12
+4.618100E+01,-6.481000E-12
+4.619100E+01,-6.519000E-12
+4.620100E+01,-6.487000E-12
+4.621100E+01,-6.501000E-12
+4.622100E+01,-6.503000E-12
+4.623100E+01,-6.495000E-12
+4.624100E+01,-6.510000E-12
+4.625100E+01,-6.498000E-12
+4.626100E+01,-6.511000E-12
+4.627100E+01,-6.509000E-12
+4.628100E+01,-6.504000E-12
+4.629100E+01,-6.524000E-12
+4.630100E+01,-6.492000E-12
+4.631100E+01,-6.524000E-12
+4.632100E+01,-6.490000E-12
+4.633100E+01,-6.518000E-12
+4.634100E+01,-6.500000E-12
+4.635100E+01,-6.510000E-12
+4.636100E+01,-6.508000E-12
+4.637100E+01,-6.498000E-12
+4.638100E+01,-6.517000E-12
+4.639100E+01,-6.508000E-12
+4.640100E+01,-6.506000E-12
+4.641100E+01,-6.517000E-12
+4.642100E+01,-6.510000E-12
+4.643100E+01,-6.528000E-12
+4.644100E+01,-6.510000E-12
+4.645100E+01,-6.546000E-12
+4.646100E+01,-6.531000E-12
+4.647100E+01,-6.546000E-12
+4.648100E+01,-6.539000E-12
+4.649100E+01,-6.540000E-12
+4.650100E+01,-6.539000E-12
+4.651100E+01,-6.543000E-12
+4.652100E+01,-6.541000E-12
+4.653100E+01,-6.549000E-12
+4.654100E+01,-6.544000E-12
+4.655100E+01,-6.544000E-12
+4.656100E+01,-6.546000E-12
+4.657100E+01,-6.545000E-12
+4.658100E+01,-6.540000E-12
+4.659100E+01,-6.543000E-12
+4.660100E+01,-6.541000E-12
+4.661100E+01,-6.545000E-12
+4.662100E+01,-6.541000E-12
+4.663100E+01,-6.542000E-12
+4.664100E+01,-6.542000E-12
+4.665100E+01,-6.542000E-12
+4.666100E+01,-6.544000E-12
+4.667100E+01,-6.541000E-12
+4.668100E+01,-6.546000E-12
+4.669100E+01,-6.539000E-12
+4.670100E+01,-6.546000E-12
+4.671100E+01,-6.537000E-12
+4.672100E+01,-6.547000E-12
+4.673100E+01,-6.539000E-12
+4.674100E+01,-6.530000E-12
+4.675100E+01,-6.507000E-12
+4.676100E+01,-6.509000E-12
+4.677100E+01,-6.500000E-12
+4.678100E+01,-6.511000E-12
+4.679100E+01,-6.495000E-12
+4.680100E+01,-6.511000E-12
+4.681100E+01,-6.498000E-12
+4.682100E+01,-6.511000E-12
+4.683100E+01,-6.498000E-12
+4.684100E+01,-6.511000E-12
+4.685100E+01,-6.495000E-12
+4.686100E+01,-6.512000E-12
+4.687100E+01,-6.492000E-12
+4.688100E+01,-6.509000E-12
+4.689100E+01,-6.492000E-12
+4.690100E+01,-6.510000E-12
+4.691100E+01,-6.488000E-12
+4.692100E+01,-6.505000E-12
+4.693100E+01,-6.485000E-12
+4.694100E+01,-6.507000E-12
+4.695100E+01,-6.489000E-12
+4.696100E+01,-6.508000E-12
+4.697100E+01,-6.488000E-12
+4.698100E+01,-6.506000E-12
+4.699100E+01,-6.488000E-12
+4.700100E+01,-6.508000E-12
+4.701100E+01,-6.488000E-12
+4.702100E+01,-6.505000E-12
+4.703100E+01,-6.486000E-12
+4.704100E+01,-6.507000E-12
+4.705100E+01,-6.489000E-12
+4.706100E+01,-6.507000E-12
+4.707100E+01,-6.489000E-12
+4.708100E+01,-6.511000E-12
+4.709100E+01,-6.491000E-12
+4.710100E+01,-6.511000E-12
+4.711100E+01,-6.489000E-12
+4.712100E+01,-6.510000E-12
+4.713100E+01,-6.491000E-12
+4.714100E+01,-6.513000E-12
+4.715100E+01,-6.497000E-12
+4.716100E+01,-6.514000E-12
+4.717100E+01,-6.499000E-12
+4.718100E+01,-6.517000E-12
+4.719100E+01,-6.517000E-12
+4.720100E+01,-6.498000E-12
+4.721100E+01,-6.518000E-12
+4.722100E+01,-6.502000E-12
+4.723100E+01,-6.520000E-12
+4.724100E+01,-6.501000E-12
+4.725100E+01,-6.520000E-12
+4.726100E+01,-6.497000E-12
+4.727100E+01,-6.517000E-12
+4.728100E+01,-6.496000E-12
+4.729100E+01,-6.516000E-12
+4.730100E+01,-6.497000E-12
+4.731100E+01,-6.515000E-12
+4.732100E+01,-6.499000E-12
+4.733100E+01,-6.516000E-12
+4.734100E+01,-6.501000E-12
+4.735100E+01,-6.516000E-12
+4.736100E+01,-6.503000E-12
+4.737100E+01,-6.516000E-12
+4.738100E+01,-6.502000E-12
+4.739100E+01,-6.513000E-12
+4.740100E+01,-6.499000E-12
+4.741100E+01,-6.513000E-12
+4.742100E+01,-6.499000E-12
+4.743100E+01,-6.515000E-12
+4.744100E+01,-6.498000E-12
+4.745100E+01,-6.509000E-12
+4.746100E+01,-6.496000E-12
+4.747100E+01,-6.510000E-12
+4.748100E+01,-6.501000E-12
+4.749100E+01,-6.510000E-12
+4.750100E+01,-6.501000E-12
+4.751100E+01,-6.506000E-12
+4.752100E+01,-6.503000E-12
+4.753100E+01,-6.514000E-12
+4.754100E+01,-6.499000E-12
+4.755100E+01,-6.525000E-12
+4.756100E+01,-6.502000E-12
+4.757100E+01,-6.524000E-12
+4.758100E+01,-6.506000E-12
+4.759100E+01,-6.517000E-12
+4.760100E+01,-6.514000E-12
+4.761100E+01,-6.513000E-12
+4.762100E+01,-6.520000E-12
+4.763100E+01,-6.516000E-12
+4.764100E+01,-6.509000E-12
+4.765100E+01,-6.526000E-12
+4.766100E+01,-6.495000E-12
+4.767100E+01,-6.522000E-12
+4.768100E+01,-6.490000E-12
+4.769100E+01,-6.510000E-12
+4.770100E+01,-6.499000E-12
+4.771100E+01,-6.502000E-12
+4.772100E+01,-6.523000E-12
+4.773100E+01,-6.503000E-12
+4.774100E+01,-6.508000E-12
+4.775100E+01,-6.509000E-12
+4.776100E+01,-6.481000E-12
+4.777100E+01,-6.518000E-12
+4.778100E+01,-6.467000E-12
+4.779100E+01,-6.513000E-12
+4.780100E+01,-6.482000E-12
+4.781100E+01,-6.499000E-12
+4.782100E+01,-6.493000E-12
+4.783100E+01,-6.495000E-12
+4.784100E+01,-6.514000E-12
+4.785100E+01,-6.498000E-12
+4.786100E+01,-6.508000E-12
+4.787100E+01,-6.504000E-12
+4.788100E+01,-6.486000E-12
+4.789100E+01,-6.516000E-12
