+5.048000E+00,+7.147436E+01
+5.056000E+00,+7.330769E+01
+5.064000E+00,+7.039744E+01
+5.072000E+00,+6.238462E+01
+5.080000E+00,+5.016667E+01
+5.088000E+00,+3.737179E+01
+5.096000E+00,+2.580769E+01
+5.104000E+00,+1.308974E+01
+5.112000E+00,+1.641026E+00
+5.120000E+00,-8.576923E+00
+5.128000E+00,-1.834615E+01
+5.136000E+00,-2.652564E+01
+5.144000E+00,-3.282051E+01
+5.152000E+00,-3.348718E+01
+5.160000E+00,-3.083333E+01
+5.168000E+00,-2.930769E+01
+5.168000E+00,-2.905128E+01
+5.176000E+00,-3.044872E+01
+5.184000E+00,-3.044872E+01
+5.192000E+00,-3.000000E+01
+5.200000E+00,-2.767949E+01
+5.208000E+00,-2.664103E+01
+5.216000E+00,-2.646154E+01
+5.224000E+00,-2.823077E+01
+5.232000E+00,-2.884615E+01
+5.240000E+00,-2.698718E+01
+5.248000E+00,-2.671795E+01
+5.256000E+00,-2.783333E+01
+5.264000E+00,-3.298718E+01
+5.272000E+00,-3.555128E+01
+5.280000E+00,-3.601282E+01
+5.288000E+00,-3.360256E+01
+5.296000E+00,-3.106410E+01
+5.304000E+00,-3.025641E+01
+5.312000E+00,-3.057692E+01
+5.320000E+00,-3.365385E+01
+5.328000E+00,-3.719231E+01
+5.336000E+00,-3.855128E+01
+5.344000E+00,-3.575641E+01
+5.352000E+00,-2.933333E+01
+5.360000E+00,-2.717949E+01
+5.368000E+00,-3.094872E+01
+5.376000E+00,-3.473077E+01
+5.384000E+00,-3.338462E+01
+5.392000E+00,-2.670513E+01
+5.400000E+00,-2.283333E+01
+5.408000E+00,-2.397436E+01
+5.416000E+00,-2.578205E+01
+5.424000E+00,-2.775641E+01
+5.432000E+00,-2.882051E+01
+5.440000E+00,-2.973077E+01
+5.448000E+00,-2.797436E+01
+5.456000E+00,-2.203846E+01
+5.464000E+00,-1.706410E+01
+5.472000E+00,-1.473077E+01
+5.480000E+00,-1.508974E+01
+5.488000E+00,-1.548718E+01
+5.496000E+00,-1.103846E+01
+5.504000E+00,-2.320513E+00
+5.512000E+00,+9.282051E+00
+5.520000E+00,+1.911538E+01
+5.528000E+00,+2.191026E+01
+5.536000E+00,+1.764103E+01
+5.544000E+00,+6.717949E+00
+5.552000E+00,-5.435897E+00
+5.560000E+00,-1.405128E+01
+5.568000E+00,-2.069231E+01
+5.576000E+00,-2.655128E+01
+5.584000E+00,-3.321795E+01
+5.592000E+00,-3.592308E+01
+5.600000E+00,-3.297436E+01
+5.608000E+00,-2.624359E+01
+5.616000E+00,-2.491026E+01
+5.624000E+00,-4.020513E+01
+5.632000E+00,-5.653846E+01
+5.640000E+00,-2.773077E+01
+5.648000E+00,+7.770513E+01
+5.656000E+00,+2.083590E+02
+5.664000E+00,+2.552821E+02
+5.672000E+00,+1.669615E+02
+5.680000E+00,+7.256410E+00
+5.688000E+00,-1.083462E+02
+5.696000E+00,-1.287179E+02
+5.704000E+00,-9.151282E+01
+5.712000E+00,-5.182051E+01
+5.720000E+00,-3.332051E+01
+5.728000E+00,-2.751282E+01
+5.736000E+00,-2.270513E+01
+5.744000E+00,-1.767949E+01
+5.752000E+00,-1.214103E+01
+5.760000E+00,-8.461538E+00
+5.768000E+00,-6.358974E+00
+5.776000E+00,-3.756410E+00
+5.784000E+00,-2.589744E+00
+5.792000E+00,-1.269231E+00
+5.800000E+00,+2.076923E+00
+5.808000E+00,+8.038462E+00
+5.816000E+00,+1.525641E+01
+5.824000E+00,+1.846154E+01
+5.832000E+00,+1.958974E+01
+5.840000E+00,+2.353846E+01
+5.848000E+00,+3.155128E+01
+5.856000E+00,+4.175641E+01
+5.864000E+00,+4.774359E+01
+5.872000E+00,+4.971795E+01
+5.880000E+00,+5.308974E+01
+5.888000E+00,+5.984615E+01
+5.896000E+00,+6.876923E+01
+5.904000E+00,+7.270513E+01
+5.912000E+00,+7.125641E+01
+5.920000E+00,+6.946154E+01
+5.928000E+00,+7.038462E+01
+5.936000E+00,+7.407692E+01
+5.944000E+00,+7.289744E+01
+5.952000E+00,+6.694872E+01
+5.960000E+00,+5.558974E+01
+5.968000E+00,+4.251282E+01
+5.976000E+00,+2.801282E+01
+5.984000E+00,+1.143590E+01
+5.992000E+00,-3.038462E+00
+6.000000E+00,-1.389744E+01
+6.008000E+00,-2.088462E+01
+6.016000E+00,-2.767949E+01
+6.024000E+00,-3.620513E+01
+6.032000E+00,-4.074359E+01
+6.040000E+00,-3.939744E+01
+6.048000E+00,-3.432051E+01
+6.056000E+00,-2.961538E+01
+6.064000E+00,-2.875641E+01
+6.072000E+00,-2.873077E+01
+6.080000E+00,-2.910256E+01
+6.088000E+00,-2.988462E+01
+6.096000E+00,-2.979487E+01
+6.104000E+00,-3.066667E+01
+6.112000E+00,-3.148718E+01
+6.120000E+00,-3.289744E+01
+6.128000E+00,-3.415385E+01
+6.136000E+00,-3.314103E+01
+6.144000E+00,-3.266667E+01
+6.152000E+00,-3.248718E+01
+6.160000E+00,-3.188462E+01
+6.168000E+00,-3.035897E+01
+6.176000E+00,-2.685897E+01
+6.184000E+00,-2.593590E+01
+6.192000E+00,-2.943590E+01
+6.200000E+00,-3.582051E+01
+6.208000E+00,-4.124359E+01
+6.216000E+00,-4.137179E+01
+6.224000E+00,-3.823077E+01
+6.232000E+00,-3.387179E+01
+6.240000E+00,-2.943590E+01
+6.248000E+00,-2.698718E+01
+6.256000E+00,-2.488462E+01
+6.264000E+00,-2.542308E+01
+6.272000E+00,-2.492308E+01
+6.280000E+00,-2.469231E+01
+6.288000E+00,-2.387179E+01
+6.296000E+00,-2.437179E+01
+6.304000E+00,-2.811538E+01
+6.312000E+00,-3.102564E+01
+6.320000E+00,-3.035897E+01
+6.328000E+00,-2.562821E+01
+6.336000E+00,-2.174359E+01
+6.344000E+00,-2.152564E+01
+6.352000E+00,-1.819231E+01
+6.360000E+00,-9.615385E+00
+6.368000E+00,+1.692308E+00
+6.376000E+00,+1.262821E+01
+6.384000E+00,+2.178205E+01
+6.392000E+00,+2.980769E+01
+6.400000E+00,+2.998718E+01
+6.408000E+00,+1.874359E+01
+6.416000E+00,+2.051282E+00
+6.424000E+00,-1.356410E+01
+6.432000E+00,-2.351282E+01
+6.440000E+00,-3.087179E+01
+6.448000E+00,-3.603846E+01
+6.456000E+00,-3.510256E+01
+6.464000E+00,-3.030769E+01
+6.472000E+00,-2.317949E+01
+6.480000E+00,-1.661538E+01
+6.488000E+00,-1.603846E+01
+6.496000E+00,-2.803846E+01
+6.504000E+00,-4.891026E+01
+6.512000E+00,-3.742308E+01
+6.520000E+00,+4.910256E+01
+6.528000E+00,+1.836282E+02
+6.536000E+00,+2.653718E+02
+6.544000E+00,+2.120513E+02
+6.552000E+00,+6.011538E+01
+6.560000E+00,-7.441026E+01
+6.568000E+00,-1.193333E+02
+6.576000E+00,-8.988462E+01
+6.584000E+00,-5.115385E+01
+6.592000E+00,-2.707692E+01
+6.600000E+00,-2.056410E+01
+6.608000E+00,-1.356410E+01
+6.616000E+00,-4.961538E+00
+6.624000E+00,+4.512821E+00
+6.632000E+00,+1.029487E+01
+6.640000E+00,+7.346154E+00
+6.648000E+00,+1.705128E+00
+6.656000E+00,+1.794872E-01
+6.664000E+00,+4.205128E+00
+6.672000E+00,+1.223077E+01
+6.680000E+00,+1.916667E+01
+6.688000E+00,+2.432051E+01
+6.696000E+00,+2.805128E+01
+6.704000E+00,+3.021795E+01
+6.712000E+00,+3.520513E+01
+6.720000E+00,+4.430769E+01
+6.728000E+00,+5.555128E+01
+6.736000E+00,+6.503846E+01
+6.744000E+00,+6.911538E+01
+6.752000E+00,+7.120513E+01
+6.760000E+00,+7.346154E+01
+6.768000E+00,+7.658974E+01
+6.776000E+00,+8.164103E+01
+6.784000E+00,+8.487179E+01
+6.792000E+00,+8.543590E+01
+6.800000E+00,+8.389744E+01
+6.808000E+00,+8.141026E+01
+6.816000E+00,+7.944872E+01
+6.824000E+00,+7.270513E+01
+6.832000E+00,+6.057692E+01
+6.840000E+00,+4.684615E+01
+6.848000E+00,+3.330769E+01
+6.856000E+00,+2.120513E+01
+6.864000E+00,+7.910256E+00
+6.872000E+00,-4.576923E+00
+6.880000E+00,-1.230769E+01
+6.888000E+00,-1.629487E+01
+6.896000E+00,-1.646154E+01
+6.904000E+00,-1.603846E+01
+6.912000E+00,-2.075641E+01
+6.920000E+00,-2.751282E+01
+6.928000E+00,-3.319231E+01
+6.936000E+00,-2.969231E+01
+6.944000E+00,-2.534615E+01
+6.952000E+00,-2.285897E+01
+6.960000E+00,-2.353846E+01
+6.968000E+00,-2.310256E+01
+6.976000E+00,-2.023077E+01
+6.984000E+00,-1.825641E+01
+6.992000E+00,-1.803846E+01
+7.000000E+00,-2.157692E+01
+7.008000E+00,-2.583333E+01
+7.016000E+00,-2.598718E+01
+7.024000E+00,-2.406410E+01
+7.032000E+00,-2.242308E+01
+7.040000E+00,-2.321795E+01
+7.048000E+00,-2.338462E+01
+7.056000E+00,-2.028205E+01
+7.064000E+00,-1.897436E+01
+7.072000E+00,-2.012821E+01
+7.080000E+00,-2.215385E+01
+7.088000E+00,-2.274359E+01
+7.096000E+00,-2.124359E+01
+7.104000E+00,-2.167949E+01
+7.112000E+00,-2.156410E+01
+7.120000E+00,-1.866667E+01
+7.128000E+00,-1.511538E+01
+7.136000E+00,-1.271795E+01
+7.144000E+00,-1.462821E+01
+7.152000E+00,-1.705128E+01
+7.160000E+00,-1.612821E+01
+7.168000E+00,-1.175641E+01
+7.176000E+00,-1.653846E+00
+7.184000E+00,+1.161538E+01
+7.192000E+00,+2.424359E+01
+7.200000E+00,+3.065385E+01
+7.208000E+00,+2.651282E+01
+7.216000E+00,+1.656410E+01
+7.224000E+00,+4.320513E+00
+7.232000E+00,-7.358974E+00
+7.240000E+00,-1.534615E+01
+7.248000E+00,-2.073077E+01
+7.256000E+00,-2.158974E+01
+7.264000E+00,-2.279487E+01
+7.272000E+00,-2.110256E+01
+7.280000E+00,-1.846154E+01
+7.288000E+00,-1.614103E+01
+7.296000E+00,-2.011538E+01
+7.304000E+00,-3.628205E+01
+7.312000E+00,-4.462821E+01
+7.320000E+00,-5.884615E+00
+7.328000E+00,+9.317949E+01
+7.336000E+00,+1.927179E+02
+7.344000E+00,+1.999231E+02
+7.352000E+00,+9.648718E+01
+7.360000E+00,-3.970513E+01
+7.368000E+00,-1.151026E+02
+7.376000E+00,-1.088205E+02
+7.384000E+00,-6.878205E+01
+7.392000E+00,-3.671795E+01
+7.400000E+00,-2.107692E+01
+7.408000E+00,-1.357692E+01
+7.416000E+00,-8.487179E+00
+7.424000E+00,-6.576923E+00
+7.432000E+00,-3.307692E+00
+7.440000E+00,+3.128205E+00
+7.448000E+00,+9.384615E+00
+7.456000E+00,+1.487179E+01
+7.464000E+00,+1.770513E+01
+7.472000E+00,+1.947436E+01
+7.480000E+00,+2.098718E+01
+7.488000E+00,+2.157692E+01
+7.496000E+00,+2.557692E+01
+7.504000E+00,+3.267949E+01
+7.512000E+00,+4.047436E+01
+7.520000E+00,+4.587179E+01
+7.528000E+00,+4.689744E+01
+7.536000E+00,+4.951282E+01
+7.544000E+00,+5.679487E+01
+7.552000E+00,+6.851282E+01
+7.560000E+00,+8.093590E+01
+7.568000E+00,+8.785897E+01
+7.576000E+00,+9.414103E+01
+7.584000E+00,+9.658974E+01
+7.592000E+00,+9.785897E+01
+7.600000E+00,+9.405128E+01
+7.608000E+00,+8.832051E+01
+7.616000E+00,+8.132051E+01
+7.624000E+00,+7.089744E+01
+7.632000E+00,+5.807692E+01
+7.640000E+00,+4.251282E+01
+7.648000E+00,+2.582051E+01
+7.656000E+00,+1.020513E+01
+7.664000E+00,-3.166667E+00
+7.672000E+00,-1.105128E+01
+7.680000E+00,-1.697436E+01
+7.688000E+00,-2.551282E+01
+7.696000E+00,-3.596154E+01
+7.704000E+00,-4.432051E+01
+7.712000E+00,-4.470513E+01
+7.720000E+00,-3.960256E+01
+7.728000E+00,-3.474359E+01
+7.736000E+00,-3.053846E+01
+7.744000E+00,-2.733333E+01
+7.752000E+00,-2.346154E+01
+7.760000E+00,-2.062821E+01
+7.768000E+00,-2.096154E+01
+7.776000E+00,-2.215385E+01
+7.784000E+00,-2.584615E+01
+7.792000E+00,-3.182051E+01
+7.800000E+00,-3.721795E+01
+7.808000E+00,-3.994872E+01
+7.816000E+00,-3.741026E+01
+7.824000E+00,-3.408974E+01
+7.832000E+00,-3.279487E+01
+7.840000E+00,-3.276923E+01
+7.848000E+00,-3.457692E+01
+7.856000E+00,-3.533333E+01
+7.856000E+00,-3.632051E+01
+7.864000E+00,-3.614103E+01
+7.872000E+00,-3.697436E+01
+7.880000E+00,-3.584615E+01
+7.888000E+00,-3.325641E+01
+7.896000E+00,-2.892308E+01
+7.904000E+00,-2.648718E+01
+7.912000E+00,-2.187179E+01
+7.920000E+00,-1.197436E+01
+7.928000E+00,+2.692308E-01
+7.936000E+00,+8.589744E+00
+7.944000E+00,+7.025641E+00
+7.952000E+00,-1.833333E+00
+7.960000E+00,-1.575641E+01
+7.968000E+00,-2.897436E+01
+7.976000E+00,-3.664103E+01
+7.984000E+00,-4.060256E+01
+7.992000E+00,-4.230769E+01
+8.000000E+00,-4.412821E+01
+8.008000E+00,-4.330769E+01
+8.016000E+00,-3.665385E+01
+8.024000E+00,-2.925641E+01
+8.032000E+00,-2.878205E+01
+8.040000E+00,-4.391026E+01
+8.048000E+00,-6.185897E+01
+8.056000E+00,-3.994872E+01
+8.064000E+00,+4.811538E+01
+8.072000E+00,+1.627179E+02
+8.080000E+00,+2.094359E+02
+8.088000E+00,+1.351538E+02
+8.096000E+00,-5.679487E+00
+8.104000E+00,-1.116282E+02
+8.112000E+00,-1.307308E+02
+8.120000E+00,-9.262821E+01
+8.128000E+00,-5.302564E+01
+8.136000E+00,-3.508974E+01
+8.144000E+00,-3.505128E+01
+8.152000E+00,-3.964103E+01
+8.160000E+00,-3.961538E+01
+8.168000E+00,-3.356410E+01
+8.176000E+00,-2.257692E+01
+8.184000E+00,-1.366667E+01
+8.192000E+00,-9.346154E+00
+8.200000E+00,-5.461538E+00
+8.208000E+00,-6.282051E-01
+8.216000E+00,+4.833333E+00
+8.224000E+00,+6.217949E+00
+8.232000E+00,+3.628205E+00
+8.240000E+00,+8.243590E+00
+8.248000E+00,+1.488462E+01
+8.256000E+00,+2.496154E+01
+8.264000E+00,+2.975641E+01
+8.272000E+00,+3.684615E+01
+8.280000E+00,+4.487179E+01
+8.288000E+00,+5.400000E+01
+8.296000E+00,+6.543590E+01
+8.304000E+00,+7.594872E+01
+8.312000E+00,+8.273077E+01
+8.320000E+00,+8.194872E+01
+8.328000E+00,+7.644872E+01
+8.336000E+00,+7.217949E+01
+8.344000E+00,+6.910256E+01
+8.352000E+00,+6.705128E+01
+8.360000E+00,+6.237179E+01
+8.368000E+00,+5.311538E+01
+8.376000E+00,+4.041026E+01
+8.384000E+00,+2.344872E+01
+8.392000E+00,+5.410256E+00
+8.400000E+00,-1.188462E+01
+8.408000E+00,-2.782051E+01
+8.416000E+00,-3.979487E+01
+8.424000E+00,-4.825641E+01
+8.432000E+00,-5.170513E+01
+8.440000E+00,-5.101282E+01
+8.448000E+00,-4.910256E+01
+8.456000E+00,-4.480769E+01
+8.464000E+00,-4.029487E+01
+8.472000E+00,-3.784615E+01
+8.480000E+00,-3.801282E+01
+8.488000E+00,-3.994872E+01
+8.496000E+00,-3.906410E+01
+8.504000E+00,-3.651282E+01
+8.512000E+00,-3.524359E+01
+8.520000E+00,-3.443590E+01
+8.528000E+00,-3.403846E+01
+8.536000E+00,-3.326923E+01
+8.544000E+00,-3.447436E+01
+8.552000E+00,-3.507692E+01
+8.560000E+00,-2.885897E+01
+8.568000E+00,-2.229487E+01
+8.576000E+00,-2.885897E+01
+8.584000E+00,-3.907692E+01
+8.592000E+00,-4.402564E+01
+8.600000E+00,-3.776923E+01
+8.608000E+00,-3.701282E+01
+8.616000E+00,-3.926923E+01
+8.624000E+00,-3.864103E+01
+8.632000E+00,-3.176923E+01
+8.640000E+00,-2.212821E+01
+8.648000E+00,-1.017949E+01
+8.656000E+00,+2.512821E+00
+8.664000E+00,+8.423077E+00
+8.672000E+00,+5.333333E+00
+8.680000E+00,-4.641026E+00
+8.688000E+00,-1.689744E+01
+8.696000E+00,-2.746154E+01
+8.704000E+00,-3.757692E+01
+8.712000E+00,-4.532051E+01
+8.720000E+00,-4.951282E+01
+8.728000E+00,-5.082051E+01
+8.736000E+00,-4.865385E+01
+8.744000E+00,-4.517949E+01
+8.752000E+00,-4.148718E+01
+8.760000E+00,-4.274359E+01
+8.768000E+00,-5.688462E+01
+8.776000E+00,-7.114103E+01
+8.784000E+00,-4.679487E+01
+8.792000E+00,+4.769231E+01
+8.800000E+00,+1.772308E+02
+8.808000E+00,+2.426538E+02
+8.816000E+00,+1.809744E+02
+8.824000E+00,+3.530769E+01
+8.832000E+00,-8.767949E+01
+8.840000E+00,-1.240769E+02
+8.848000E+00,-9.915385E+01
+8.856000E+00,-6.570513E+01
+8.864000E+00,-4.821795E+01
+8.872000E+00,-4.248718E+01
+8.880000E+00,-3.841026E+01
+8.888000E+00,-3.574359E+01
+8.896000E+00,-3.060256E+01
+8.904000E+00,-1.685897E+01
+8.912000E+00,-6.141026E+00
+8.920000E+00,-2.153846E+00
+8.928000E+00,-8.923077E+00
+8.936000E+00,-1.091026E+01
+8.944000E+00,-7.576923E+00
+8.952000E+00,-2.179487E+00
+8.960000E+00,+3.076923E-01
+8.968000E+00,+1.897436E+00
+8.976000E+00,+6.897436E+00
+8.984000E+00,+1.453846E+01
+8.992000E+00,+2.547436E+01
+9.000000E+00,+3.698718E+01
+9.008000E+00,+4.635897E+01
+9.016000E+00,+5.469231E+01
+9.024000E+00,+6.287179E+01
+9.032000E+00,+7.279487E+01
+9.040000E+00,+7.993590E+01
+9.048000E+00,+7.883333E+01
+9.056000E+00,+7.338462E+01
+9.064000E+00,+6.839744E+01
+9.072000E+00,+6.721795E+01
+9.080000E+00,+6.673077E+01
+9.088000E+00,+6.105128E+01
+9.096000E+00,+5.088462E+01
+9.104000E+00,+3.770513E+01
+9.112000E+00,+2.466667E+01
+9.120000E+00,+1.391026E+01
+9.128000E+00,+2.589744E+00
+9.136000E+00,-9.858974E+00
+9.144000E+00,-2.406410E+01
+9.152000E+00,-3.765385E+01
+9.160000E+00,-4.546154E+01
+9.168000E+00,-4.741026E+01
+9.176000E+00,-4.485897E+01
+9.184000E+00,-4.362821E+01
+9.192000E+00,-4.714103E+01
+9.200000E+00,-4.957692E+01
+9.208000E+00,-4.725641E+01
+9.216000E+00,-4.015385E+01
+9.224000E+00,-3.470513E+01
+9.232000E+00,-3.587179E+01
+9.240000E+00,-3.591026E+01
+9.248000E+00,-3.653846E+01
+9.256000E+00,-3.433333E+01
+9.264000E+00,-3.619231E+01
+9.272000E+00,-3.806410E+01
+9.280000E+00,-3.964103E+01
+9.288000E+00,-3.994872E+01
+9.296000E+00,-3.687179E+01
+9.304000E+00,-3.303846E+01
+9.312000E+00,-2.955128E+01
+9.320000E+00,-2.856410E+01
+9.328000E+00,-2.893590E+01
+9.336000E+00,-2.766667E+01
+9.344000E+00,-2.821795E+01
+9.352000E+00,-3.120513E+01
+9.360000E+00,-3.626923E+01
+9.368000E+00,-4.080769E+01
+9.376000E+00,-4.035897E+01
+9.384000E+00,-3.634615E+01
+9.392000E+00,-2.942308E+01
+9.400000E+00,-2.216667E+01
+9.408000E+00,-1.867949E+01
+9.416000E+00,-1.720513E+01
+9.424000E+00,-1.457692E+01
+9.432000E+00,-5.538462E+00
+9.440000E+00,+8.717949E+00
+9.448000E+00,+1.905128E+01
+9.456000E+00,+2.092308E+01
+9.464000E+00,+1.385897E+01
+9.472000E+00,+1.564103E+00
+9.480000E+00,-1.142308E+01
+9.488000E+00,-2.408974E+01
+9.496000E+00,-3.220513E+01
+9.504000E+00,-3.521795E+01
+9.512000E+00,-3.475641E+01
+9.520000E+00,-3.250000E+01
+9.528000E+00,-3.142308E+01
+9.536000E+00,-2.966667E+01
+9.544000E+00,-2.815385E+01
+9.552000E+00,-3.312821E+01
+9.560000E+00,-4.734615E+01
+9.568000E+00,-5.587179E+01
+9.576000E+00,+4.238462E+01
+9.584000E+00,+1.713077E+02
+9.592000E+00,+2.526410E+02
+9.600000E+00,+1.627051E+02
+9.608000E+00,+5.538462E+00
+9.616000E+00,-1.075641E+02
+9.624000E+00,-1.265769E+02
+9.632000E+00,-8.492308E+01
+9.640000E+00,-4.271795E+01
+9.648000E+00,-2.660256E+01
+9.656000E+00,-2.748718E+01
+9.664000E+00,-3.153846E+01
+9.672000E+00,-3.025641E+01
+9.680000E+00,-2.393590E+01
+9.688000E+00,-1.662821E+01
+9.696000E+00,-9.423077E+00
+9.704000E+00,-3.961538E+00
+9.712000E+00,+1.666667E-01
+9.720000E+00,+1.705128E+00
+9.728000E+00,+8.974359E-02
+9.736000E+00,+5.128205E-01
+9.744000E+00,+4.525641E+00
+9.752000E+00,+1.180769E+01
+9.760000E+00,+1.888462E+01
+9.768000E+00,+2.119231E+01
+9.776000E+00,+2.306410E+01
+9.784000E+00,+2.839744E+01
+9.792000E+00,+3.780769E+01
+9.800000E+00,+4.829487E+01
+9.808000E+00,+5.565385E+01
+9.816000E+00,+6.330769E+01
+9.824000E+00,+7.265385E+01
+9.832000E+00,+8.012821E+01
+9.840000E+00,+8.338462E+01
+9.848000E+00,+8.098718E+01
+9.856000E+00,+7.789744E+01
+9.864000E+00,+7.667949E+01
+9.872000E+00,+7.501282E+01
+9.880000E+00,+7.179487E+01
+9.888000E+00,+6.255128E+01
+9.896000E+00,+4.683333E+01
+9.904000E+00,+2.385897E+01
+9.912000E+00,+4.423077E+00
+9.920000E+00,-8.256410E+00
+9.928000E+00,-1.612821E+01
+9.936000E+00,-2.526923E+01
+9.944000E+00,-3.591026E+01
+9.952000E+00,-4.276923E+01
+9.960000E+00,-4.450000E+01
+9.968000E+00,-4.224359E+01
+9.976000E+00,-3.844872E+01
+9.984000E+00,-3.924359E+01
+9.992000E+00,-4.310256E+01
+1.000000E+01,-4.535897E+01
+1.000800E+01,-4.320513E+01
+1.001600E+01,-3.806410E+01
+1.002400E+01,-3.680769E+01
+1.003200E+01,-3.857692E+01
+1.004000E+01,-3.914103E+01
+1.004800E+01,-3.711538E+01
+1.005600E+01,-3.220513E+01
+1.006400E+01,-2.903846E+01
+1.007200E+01,-2.803846E+01
+1.008000E+01,-2.748718E+01
+1.008800E+01,-2.752564E+01
+1.009600E+01,-2.621795E+01
+1.010400E+01,-2.646154E+01
+1.011200E+01,-3.007692E+01
+1.012000E+01,-3.447436E+01
+1.012800E+01,-3.646154E+01
+1.013600E+01,-3.201282E+01
+1.014400E+01,-2.552564E+01
+1.015200E+01,-2.379487E+01
+1.016000E+01,-2.707692E+01
+1.016800E+01,-3.251282E+01
+1.017600E+01,-3.361538E+01
+1.018400E+01,-3.041026E+01
+1.019200E+01,-2.791026E+01
+1.020000E+01,-2.584615E+01
+1.020800E+01,-2.403846E+01
+1.021600E+01,-2.210256E+01
+1.022400E+01,-2.219231E+01
+1.023200E+01,-2.498718E+01
+1.024000E+01,-2.439744E+01
+1.024800E+01,-2.538462E+01
+1.025600E+01,-2.516667E+01
+1.026400E+01,-2.582051E+01
+1.027200E+01,-2.216667E+01
+1.028000E+01,-1.723077E+01
+1.028800E+01,-1.465385E+01
+1.029600E+01,-1.382051E+01
+1.030400E+01,-1.555128E+01
+1.031200E+01,-1.778205E+01
+1.032000E+01,-1.973077E+01
+1.032800E+01,-2.165385E+01
+1.033600E+01,-2.114103E+01
+1.034400E+01,-1.862821E+01
+1.035200E+01,-1.358974E+01
+1.036000E+01,-8.961538E+00
+1.036800E+01,-9.666667E+00
+1.037600E+01,-1.237179E+01
+1.038400E+01,-1.423077E+01
+1.039200E+01,-1.405128E+01
+1.040000E+01,-1.388462E+01
+1.040800E+01,-1.593590E+01
+1.041600E+01,-1.493590E+01
+1.042400E+01,-1.111538E+01
+1.043200E+01,-8.987179E+00
+1.044000E+01,-1.061538E+01
+1.044800E+01,-1.460256E+01
+1.045600E+01,-1.411538E+01
+1.046400E+01,-9.230769E+00
+1.047200E+01,-3.782051E+00
+1.048000E+01,+2.653846E+00
+1.048800E+01,+9.192308E+00
+1.049600E+01,+1.644872E+01
+1.050400E+01,+2.162821E+01
+1.051200E+01,+2.280769E+01
+1.052000E+01,+2.382051E+01
+1.052800E+01,+2.364103E+01
+1.053600E+01,+1.998718E+01
+1.054400E+01,+1.093590E+01
+1.055200E+01,-2.141026E+00
+1.056000E+01,-1.126923E+01
+1.056800E+01,-1.514103E+01
+1.057600E+01,-1.748718E+01
+1.058400E+01,-1.908974E+01
+1.059200E+01,-2.157692E+01
+1.060000E+01,-2.080769E+01
+1.060800E+01,-1.862821E+01
+1.061600E+01,-1.389744E+01
+1.062400E+01,-1.610256E+01
+1.063200E+01,-3.288462E+01
+1.064000E+01,-4.552564E+01
+1.064800E+01,-5.307692E+00
+1.065600E+01,+1.107308E+02
+1.066400E+01,+2.376410E+02
+1.067200E+01,+2.681667E+02
+1.068000E+01,+1.645769E+02
+1.068800E+01,+4.217949E+00
+1.069600E+01,-9.907692E+01
+1.070400E+01,-1.084872E+02
+1.071200E+01,-6.879487E+01
+1.072000E+01,-3.439744E+01
+1.072800E+01,-2.271795E+01
+1.073600E+01,-2.070513E+01
+1.074400E+01,-1.946154E+01
+1.075200E+01,-1.842308E+01
+1.076000E+01,-1.607692E+01
+1.076800E+01,-1.241026E+01
+1.077600E+01,-6.551282E+00
+1.078400E+01,-8.974359E-01
+1.079200E+01,+3.333333E+00
+1.080000E+01,+9.141026E+00
+1.080800E+01,+1.467949E+01
+1.081600E+01,+1.741026E+01
+1.082400E+01,+1.725641E+01
+1.083200E+01,+1.803846E+01
+1.084000E+01,+2.378205E+01
+1.084800E+01,+2.893590E+01
+1.085600E+01,+3.039744E+01
+1.086400E+01,+3.307692E+01
+1.087200E+01,+4.111538E+01
+1.088000E+01,+5.501282E+01
+1.088800E+01,+6.735897E+01
+1.089600E+01,+7.438462E+01
+1.090400E+01,+7.998718E+01
+1.091200E+01,+8.450000E+01
+1.092000E+01,+9.057692E+01
+1.092800E+01,+9.197436E+01
+1.093600E+01,+9.074359E+01
+1.094400E+01,+8.689744E+01
+1.095200E+01,+8.282051E+01
+1.096000E+01,+7.694872E+01
+1.096800E+01,+6.774359E+01
+1.097600E+01,+5.874359E+01
+1.098400E+01,+4.842308E+01
+1.099200E+01,+3.425641E+01
+1.100000E+01,+1.626923E+01
+1.100800E+01,-5.000000E-01
+1.101600E+01,-9.666667E+00
+1.102400E+01,-1.502564E+01
+1.103200E+01,-2.165385E+01
+1.104000E+01,-2.837179E+01
+1.104800E+01,-3.273077E+01
+1.105600E+01,-3.096154E+01
+1.106400E+01,-2.629487E+01
+1.107200E+01,-2.310256E+01
+1.108000E+01,-2.253846E+01
+1.108800E+01,-2.578205E+01
+1.109600E+01,-2.853846E+01
+1.110400E+01,-2.869231E+01
+1.111200E+01,-2.793590E+01
+1.112000E+01,-2.648718E+01
+1.112800E+01,-2.535897E+01
+1.113600E+01,-2.207692E+01
+1.114400E+01,-1.766667E+01
+1.115200E+01,-1.700000E+01
+1.116000E+01,-1.973077E+01
+1.116800E+01,-2.446154E+01
+1.117600E+01,-2.656410E+01
+1.118400E+01,-2.430769E+01
+1.119200E+01,-2.211538E+01
+1.120000E+01,-2.123077E+01
+1.120800E+01,-2.171795E+01
+1.121600E+01,-2.125641E+01
+1.122400E+01,-1.976923E+01
+1.123200E+01,-2.169231E+01
+1.124000E+01,-2.170513E+01
+1.124800E+01,-2.129487E+01
+1.125600E+01,-1.844872E+01
+1.126400E+01,-1.924359E+01
+1.127200E+01,-2.220513E+01
+1.128000E+01,-2.356410E+01
+1.128800E+01,-2.221795E+01
+1.129600E+01,-1.794872E+01
+1.130400E+01,-1.574359E+01
+1.131200E+01,-1.657692E+01
+1.132000E+01,-1.770513E+01
+1.132800E+01,-1.816667E+01
+1.133600E+01,-1.706410E+01
+1.134400E+01,-1.753846E+01
+1.135200E+01,-1.975641E+01
+1.136000E+01,-2.001282E+01
+1.136800E+01,-1.797436E+01
+1.137600E+01,-1.267949E+01
+1.138400E+01,-7.641026E+00
+1.139200E+01,-6.653846E+00
+1.140000E+01,-8.961538E+00
+1.140800E+01,-1.271795E+01
+1.141600E+01,-1.243590E+01
+1.142400E+01,-9.128205E+00
+1.143200E+01,-7.256410E+00
+1.144000E+01,-4.602564E+00
+1.144800E+01,+9.230769E-01
+1.145600E+01,+1.084615E+01
+1.146400E+01,+2.079487E+01
+1.147200E+01,+2.566667E+01
+1.148000E+01,+2.651282E+01
+1.148800E+01,+2.230769E+01
+1.149600E+01,+1.462821E+01
+1.150400E+01,+6.397436E+00
+1.151200E+01,-1.692308E+00
+1.152000E+01,-7.666667E+00
+1.152800E+01,-1.344872E+01
+1.153600E+01,-1.747436E+01
+1.154400E+01,-1.665385E+01
+1.155200E+01,-1.464103E+01
+1.156000E+01,-1.338462E+01
+1.156800E+01,-1.311538E+01
+1.157600E+01,-1.887179E+01
+1.158400E+01,-3.241026E+01
+1.159200E+01,-3.991026E+01
+1.160000E+01,+2.500000E+00
+1.160800E+01,+1.055256E+02
+1.161600E+01,+2.120256E+02
+1.162400E+01,+2.290000E+02
+1.163200E+01,+1.301667E+02
+1.164000E+01,-1.153846E+01
+1.164800E+01,-1.008974E+02
+1.165600E+01,-1.060897E+02
+1.166400E+01,-6.864103E+01
+1.167200E+01,-3.466667E+01
+1.168000E+01,-1.662821E+01
+1.168800E+01,-9.410256E+00
+1.169600E+01,-5.884615E+00
+1.170400E+01,-4.858974E+00
+1.171200E+01,-2.615385E+00
+1.172000E+01,+4.358974E+00
+1.172800E+01,+1.161538E+01
+1.173600E+01,+1.661538E+01
+1.174400E+01,+1.788462E+01
+1.175200E+01,+1.682051E+01
+1.176000E+01,+1.844872E+01
+1.176800E+01,+2.303846E+01
+1.177600E+01,+2.988462E+01
+1.178400E+01,+3.553846E+01
+1.179200E+01,+3.656410E+01
+1.180000E+01,+3.757692E+01
+1.180800E+01,+4.223077E+01
+1.181600E+01,+5.101282E+01
+1.182400E+01,+6.098718E+01
+1.183200E+01,+6.788462E+01
+1.184000E+01,+7.558974E+01
+1.184800E+01,+8.575641E+01
+1.185600E+01,+9.607692E+01
+1.186400E+01,+1.032692E+02
+1.187200E+01,+1.026026E+02
+1.188000E+01,+9.752564E+01
+1.188800E+01,+9.173077E+01
+1.189600E+01,+8.797436E+01
+1.190400E+01,+8.548718E+01
+1.191200E+01,+7.667949E+01
+1.192000E+01,+6.262821E+01
+1.192800E+01,+4.311538E+01
+1.193600E+01,+2.455128E+01
+1.194400E+01,+5.858974E+00
+1.195200E+01,-1.241026E+01
+1.196000E+01,-2.856410E+01
+1.196800E+01,-4.128205E+01
+1.197600E+01,-4.638462E+01
+1.198400E+01,-4.620513E+01
+1.199200E+01,-4.425641E+01
+1.200000E+01,-4.426923E+01
+1.200800E+01,-4.812821E+01
+1.201600E+01,-4.850000E+01
+1.202400E+01,-4.193590E+01
+1.203200E+01,-3.171795E+01
+1.204000E+01,-2.484615E+01
+1.204800E+01,-2.623077E+01
+1.205600E+01,-2.889744E+01
+1.206400E+01,-2.739744E+01
+1.207200E+01,-2.329487E+01
+1.208000E+01,-2.129487E+01
+1.208800E+01,-2.523077E+01
+1.209600E+01,-3.008974E+01
+1.210400E+01,-3.234615E+01
+1.211200E+01,-3.439744E+01
+1.212000E+01,-3.705128E+01
+1.212800E+01,-3.991026E+01
+1.213600E+01,-3.893590E+01
+1.214400E+01,-3.311538E+01
+1.215200E+01,-2.774359E+01
+1.216000E+01,-2.606410E+01
+1.216800E+01,-3.051282E+01
+1.217600E+01,-3.812821E+01
+1.218400E+01,-4.280769E+01
+1.219200E+01,-4.326923E+01
+1.220000E+01,-3.853846E+01
+1.220800E+01,-3.142308E+01
+1.221600E+01,-2.600000E+01
+1.222400E+01,-2.398718E+01
+1.223200E+01,-2.787179E+01
+1.224000E+01,-3.147436E+01
+1.224800E+01,-3.269231E+01
+1.225600E+01,-2.952564E+01
+1.226400E+01,-2.553846E+01
+1.227200E+01,-2.284615E+01
+1.228000E+01,-2.100000E+01
+1.228800E+01,-2.014103E+01
+1.229600E+01,-1.685897E+01
+1.230400E+01,-1.223077E+01
+1.231200E+01,-7.333333E+00
+1.232000E+01,-1.961538E+00
+1.232800E+01,+1.666667E+00
+1.233600E+01,+3.205128E+00
+1.234400E+01,-1.064103E+00
+1.235200E+01,-1.143590E+01
+1.236000E+01,-2.162821E+01
+1.236800E+01,-2.889744E+01
+1.237600E+01,-3.155128E+01
+1.238400E+01,-3.316667E+01
+1.239200E+01,-3.682051E+01
+1.240000E+01,-3.801282E+01
+1.240800E+01,-3.620513E+01
+1.241600E+01,-3.470513E+01
+1.242400E+01,-4.192308E+01
+1.243200E+01,-5.233333E+01
+1.244000E+01,-2.997436E+01
+1.244800E+01,+4.987179E+01
+1.245600E+01,+1.538333E+02
+1.246400E+01,+1.977436E+02
+1.247200E+01,+1.301795E+02
+1.248000E+01,-1.794872E-01
+1.248800E+01,-9.869231E+01
+1.249600E+01,-1.174872E+02
+1.250400E+01,-8.471795E+01
+1.251200E+01,-5.216667E+01
+1.252000E+01,-3.564103E+01
+1.252800E+01,-2.692308E+01
+1.253600E+01,-2.069231E+01
+1.254400E+01,-1.874359E+01
+1.255200E+01,-2.261538E+01
+1.256000E+01,-2.415385E+01
+1.256800E+01,-1.602564E+01
+1.257600E+01,-5.910256E+00
+1.258400E+01,+2.115385E+00
+1.259200E+01,+1.615385E+00
+1.260000E+01,+2.615385E+00
+1.260800E+01,+4.371795E+00
+1.261600E+01,+7.653846E+00
+1.262400E+01,+1.088462E+01
+1.263200E+01,+1.575641E+01
+1.264000E+01,+2.497436E+01
+1.264800E+01,+3.548718E+01
+1.265600E+01,+4.437179E+01
+1.266400E+01,+4.885897E+01
+1.267200E+01,+5.253846E+01
+1.268000E+01,+6.097436E+01
+1.268800E+01,+7.096154E+01
+1.269600E+01,+7.876923E+01
+1.270400E+01,+8.366667E+01
+1.271200E+01,+8.747436E+01
+1.272000E+01,+9.070513E+01
+1.272800E+01,+8.812821E+01
+1.273600E+01,+8.003846E+01
+1.274400E+01,+7.061538E+01
+1.275200E+01,+6.001282E+01
+1.276000E+01,+4.658974E+01
+1.276800E+01,+2.867949E+01
+1.277600E+01,+1.088462E+01
+1.278400E+01,-2.025641E+00
+1.279200E+01,-1.355128E+01
+1.280000E+01,-2.556410E+01
+1.280800E+01,-3.728205E+01
+1.281600E+01,-4.438462E+01
+1.282400E+01,-4.508974E+01
+1.283200E+01,-4.688462E+01
+1.284000E+01,-5.262821E+01
+1.284800E+01,-5.875641E+01
+1.285600E+01,-5.950000E+01
+1.286400E+01,-5.234615E+01
+1.287200E+01,-4.456410E+01
+1.288000E+01,-3.983333E+01
+1.288800E+01,-3.691026E+01
+1.289600E+01,-3.475641E+01
+1.290400E+01,-3.214103E+01
+1.291200E+01,-3.369231E+01
+1.292000E+01,-3.520513E+01
+1.292800E+01,-3.510256E+01
+1.293600E+01,-3.088462E+01
+1.294400E+01,-2.708974E+01
+1.295200E+01,-2.753846E+01
+1.296000E+01,-3.082051E+01
+1.296800E+01,-3.576923E+01
+1.297600E+01,-3.829487E+01
+1.298400E+01,-3.806410E+01
+1.299200E+01,-3.714103E+01
+1.300000E+01,-3.592308E+01
+1.300800E+01,-3.685897E+01
+1.301600E+01,-3.637179E+01
+1.302400E+01,-3.212821E+01
+1.303200E+01,-2.684615E+01
+1.304000E+01,-2.332051E+01
+1.304800E+01,-2.623077E+01
+1.305600E+01,-3.274359E+01
+1.306400E+01,-3.688462E+01
+1.307200E+01,-3.746154E+01
+1.308000E+01,-3.467949E+01
+1.308800E+01,-3.342308E+01
+1.309600E+01,-3.326923E+01
+1.310400E+01,-2.933333E+01
+1.311200E+01,-2.312821E+01
+1.312000E+01,-1.855128E+01
+1.312800E+01,-1.966667E+01
+1.313600E+01,-2.233333E+01
+1.314400E+01,-1.887179E+01
+1.315200E+01,-1.155128E+01
+1.316000E+01,-4.141026E+00
+1.316800E+01,+1.474359E+00
+1.317600E+01,+6.051282E+00
+1.318400E+01,+1.066667E+01
+1.319200E+01,+1.016667E+01
+1.320000E+01,+3.512821E+00
+1.320800E+01,-6.794872E+00
+1.321600E+01,-1.782051E+01
+1.321600E+01,-2.406410E+01
+1.322400E+01,-2.817949E+01
+1.323200E+01,-2.894872E+01
+1.324000E+01,-3.160256E+01
+1.324800E+01,-3.206410E+01
+1.325600E+01,-2.874359E+01
+1.326400E+01,-2.341026E+01
+1.327200E+01,-3.012821E+01
+1.328000E+01,-5.028205E+01
+1.328800E+01,-5.635897E+01
+1.329600E+01,-2.166667E+00
+1.330400E+01,+1.134615E+02
+1.331200E+01,+2.168205E+02
+1.332000E+01,+2.182436E+02
+1.332800E+01,+1.049487E+02
+1.333600E+01,-3.682051E+01
+1.334400E+01,-1.134872E+02
+1.335200E+01,-1.083077E+02
+1.336000E+01,-6.952564E+01
+1.336800E+01,-4.501282E+01
+1.337600E+01,-4.015385E+01
+1.338400E+01,-3.796154E+01
+1.339200E+01,-2.957692E+01
+1.340000E+01,-1.735897E+01
+1.340800E+01,-1.014103E+01
+1.341600E+01,-1.057692E+01
+1.342400E+01,-1.306410E+01
+1.343200E+01,-1.232051E+01
+1.344000E+01,-5.615385E+00
+1.344800E+01,+1.564103E+00
+1.345600E+01,+4.423077E+00
+1.346400E+01,+5.153846E+00
+1.347200E+01,+6.128205E+00
+1.348000E+01,+9.461538E+00
+1.348800E+01,+1.283333E+01
+1.349600E+01,+1.532051E+01
+1.350400E+01,+2.121795E+01
+1.351200E+01,+3.020513E+01
+1.352000E+01,+4.041026E+01
+1.352800E+01,+4.908974E+01
+1.353600E+01,+5.538462E+01
+1.354400E+01,+6.303846E+01
+1.355200E+01,+7.148718E+01
+1.356000E+01,+7.874359E+01
+1.356800E+01,+8.212821E+01
+1.357600E+01,+8.271795E+01
+1.358400E+01,+8.329487E+01
+1.359200E+01,+8.089744E+01
+1.360000E+01,+7.420513E+01
+1.360800E+01,+6.079487E+01
+1.361600E+01,+4.398718E+01
+1.362400E+01,+2.619231E+01
+1.363200E+01,+8.743590E+00
+1.364000E+01,-5.923077E+00
+1.364800E+01,-1.938462E+01
+1.364800E+01,-2.693590E+01
+1.365600E+01,-3.257692E+01
+1.366400E+01,-3.300000E+01
+1.367200E+01,-3.429487E+01
+1.368000E+01,-3.730769E+01
+1.368800E+01,-4.643590E+01
+1.369600E+01,-5.583333E+01
+1.370400E+01,-5.732051E+01
+1.371200E+01,-5.119231E+01
+1.372000E+01,-4.224359E+01
+1.372800E+01,-3.752564E+01
+1.373600E+01,-3.679487E+01
+1.374400E+01,-3.597436E+01
+1.375200E+01,-3.557692E+01
+1.376000E+01,-3.547436E+01
+1.376800E+01,-3.634615E+01
+1.377600E+01,-3.692308E+01
+1.378400E+01,-3.570513E+01
+1.379200E+01,-3.584615E+01
+1.380000E+01,-3.753846E+01
+1.380800E+01,-3.928205E+01
+1.380800E+01,-4.046154E+01
+1.381600E+01,-3.791026E+01
+1.382400E+01,-3.292308E+01
+1.383200E+01,-2.735897E+01
+1.384000E+01,-2.594872E+01
+1.384800E+01,-2.869231E+01
+1.385600E+01,-3.311538E+01
+1.386400E+01,-3.517949E+01
+1.387200E+01,-3.679487E+01
+1.388000E+01,-3.885897E+01
+1.388800E+01,-3.789744E+01
+1.389600E+01,-3.317949E+01
+1.390400E+01,-2.793590E+01
+1.391200E+01,-2.856410E+01
+1.392000E+01,-3.196154E+01
+1.392800E+01,-3.402564E+01
+1.393600E+01,-3.308974E+01
+1.394400E+01,-3.101282E+01
+1.395200E+01,-2.925641E+01
+1.396000E+01,-2.598718E+01
+1.396800E+01,-2.371795E+01
+1.397600E+01,-2.325641E+01
+1.398400E+01,-2.457692E+01
+1.399200E+01,-2.692308E+01
+1.400000E+01,-2.632051E+01
+1.400800E+01,-2.465385E+01
+1.401600E+01,-2.346154E+01
+1.402400E+01,-2.289744E+01
+1.403200E+01,-2.237179E+01
+1.404000E+01,-1.862821E+01
+1.404800E+01,-1.434615E+01
+1.405600E+01,-1.105128E+01
+1.406400E+01,-6.115385E+00
+1.407200E+01,+1.076923E+00
+1.408000E+01,+1.123077E+01
+1.408800E+01,+1.960256E+01
+1.409600E+01,+2.237179E+01
+1.410400E+01,+1.783333E+01
+1.411200E+01,+3.205128E+00
+1.412000E+01,-1.612821E+01
+1.412800E+01,-3.158974E+01
+1.413600E+01,-3.779487E+01
+1.414400E+01,-3.558974E+01
+1.415200E+01,-3.371795E+01
+1.416000E+01,-3.423077E+01
+1.416800E+01,-3.146154E+01
+1.417600E+01,-2.407692E+01
+1.418400E+01,-1.853846E+01
+1.419200E+01,-2.791026E+01
+1.420000E+01,-4.641026E+01
+1.420800E+01,-3.674359E+01
+1.421600E+01,+3.650000E+01
+1.422400E+01,+1.567564E+02
+1.423200E+01,+2.397308E+02
+1.424000E+01,+1.508846E+02
+1.424800E+01,+3.217949E+00
+1.425600E+01,-1.172308E+02
+1.426400E+01,-1.013205E+02
+1.427200E+01,-6.412821E+01
+1.428000E+01,-4.046154E+01
+1.428800E+01,-3.228205E+01
+1.429600E+01,-2.666667E+01
+1.430400E+01,-1.915385E+01
+1.431200E+01,-1.358974E+01
+1.432000E+01,-1.029487E+01
+1.432800E+01,-1.070513E+01
+1.433600E+01,-1.167949E+01
+1.434400E+01,-9.666667E+00
+1.435200E+01,-6.410256E+00
+1.436000E+01,-1.782051E+00
+1.436800E+01,+1.910256E+00
+1.437600E+01,+4.141026E+00
+1.438400E+01,+5.743590E+00
+1.439200E+01,+5.910256E+00
+1.440000E+01,+9.294872E+00
+1.440800E+01,+1.757692E+01
+1.441600E+01,+2.833333E+01
+1.442400E+01,+3.860256E+01
+1.443200E+01,+4.521795E+01
+1.444000E+01,+5.137179E+01
+1.444800E+01,+5.841026E+01
+1.445600E+01,+6.403846E+01
+1.446400E+01,+6.919231E+01
+1.447200E+01,+7.379487E+01
+1.448000E+01,+7.889744E+01
+1.448800E+01,+8.217949E+01
+1.449600E+01,+8.089744E+01
+1.450400E+01,+7.946154E+01
+1.451200E+01,+7.852564E+01
+1.452000E+01,+7.493590E+01
+1.452800E+01,+6.596154E+01
+1.453600E+01,+5.097436E+01
+1.454400E+01,+3.415385E+01
+1.455200E+01,+1.482051E+01
+1.456000E+01,-6.000000E+00
+1.456800E+01,-1.939744E+01
+1.457600E+01,-2.539744E+01
+1.458400E+01,-2.469231E+01
+1.459200E+01,-2.878205E+01
+1.460000E+01,-3.510256E+01
+1.460800E+01,-4.184615E+01
+1.461600E+01,-4.615385E+01
+1.462400E+01,-4.752564E+01
+1.463200E+01,-4.761538E+01
+1.464000E+01,-4.470513E+01
+1.464800E+01,-4.048718E+01
+1.465600E+01,-3.558974E+01
+1.466400E+01,-3.094872E+01
+1.467200E+01,-2.948718E+01
+1.468000E+01,-2.987179E+01
+1.468800E+01,-3.197436E+01
+1.469600E+01,-3.357692E+01
+1.470400E+01,-3.241026E+01
+1.471200E+01,-3.225641E+01
+1.472000E+01,-3.334615E+01
+1.472800E+01,-3.492308E+01
+1.473600E+01,-3.501282E+01
+1.474400E+01,-3.121795E+01
+1.475200E+01,-2.800000E+01
+1.476000E+01,-2.748718E+01
+1.476800E+01,-3.087179E+01
+1.477600E+01,-3.614103E+01
+1.478400E+01,-3.633333E+01
+1.479200E+01,-3.193590E+01
+1.480000E+01,-2.716667E+01
+1.480800E+01,-2.617949E+01
+1.481600E+01,-2.946154E+01
+1.482400E+01,-3.001282E+01
+1.483200E+01,-2.691026E+01
+1.484000E+01,-2.380769E+01
+1.484800E+01,-2.350000E+01
+1.485600E+01,-2.739744E+01
+1.486400E+01,-2.973077E+01
+1.487200E+01,-2.861538E+01
+1.488000E+01,-2.614103E+01
+1.488800E+01,-2.369231E+01
+1.489600E+01,-2.323077E+01
+1.490400E+01,-2.035897E+01
+1.491200E+01,-2.097436E+01
+1.492000E+01,-2.429487E+01
+1.492800E+01,-2.906410E+01
+1.493600E+01,-2.751282E+01
+1.494400E+01,-2.025641E+01
+1.495200E+01,-1.525641E+01
+1.496000E+01,-1.541026E+01
+1.496800E+01,-1.873077E+01
+1.497600E+01,-1.717949E+01
+1.498400E+01,-7.628205E+00
+1.499200E+01,+4.243590E+00
+1.500000E+01,+1.519231E+01
+1.500800E+01,+2.323077E+01
+1.501600E+01,+2.758974E+01
+1.502400E+01,+2.678205E+01
+1.503200E+01,+1.779487E+01
+1.504000E+01,+5.243590E+00
+1.504800E+01,-5.948718E+00
+1.505600E+01,-1.460256E+01
+1.506400E+01,-2.014103E+01
+1.507200E+01,-2.424359E+01
+1.508000E+01,-2.616667E+01
+1.508800E+01,-2.669231E+01
+1.509600E+01,-2.585897E+01
+1.510400E+01,-2.051282E+01
+1.511200E+01,-1.737179E+01
+1.512000E+01,-2.788462E+01
+1.512800E+01,-4.858974E+01
+1.513600E+01,-4.410256E+01
+1.514400E+01,+2.889744E+01
+1.515200E+01,+1.525385E+02
+1.516000E+01,+2.392949E+02
+1.516800E+01,+2.096410E+02
+1.517600E+01,+7.708974E+01
+1.518400E+01,-5.797436E+01
+1.519200E+01,-1.142436E+02
+1.520000E+01,-9.441026E+01
+1.520800E+01,-5.342308E+01
+1.521600E+01,-3.215385E+01
+1.522400E+01,-2.794872E+01
+1.523200E+01,-2.544872E+01
+1.524000E+01,-1.933333E+01
+1.524800E+01,-1.407692E+01
+1.525600E+01,-1.148718E+01
+1.526400E+01,-8.717949E+00
+1.527200E+01,-5.461538E+00
+1.528000E+01,-2.269231E+00
+1.528800E+01,-1.358974E+00
+1.529600E+01,-4.487179E-01
+1.530400E+01,+2.948718E+00
+1.531200E+01,+7.397436E+00
+1.532000E+01,+1.338462E+01
+1.532800E+01,+1.933333E+01
+1.533600E+01,+2.484615E+01
+1.534400E+01,+3.042308E+01
+1.535200E+01,+3.400000E+01
+1.536000E+01,+3.884615E+01
+1.536800E+01,+4.638462E+01
+1.537600E+01,+5.570513E+01
+1.538400E+01,+6.619231E+01
+1.539200E+01,+7.355128E+01
+1.540000E+01,+7.744872E+01
+1.540800E+01,+7.807692E+01
+1.541600E+01,+7.664103E+01
+1.542400E+01,+7.774359E+01
+1.543200E+01,+7.915385E+01
+1.544000E+01,+7.838462E+01
+1.544800E+01,+7.353846E+01
+1.545600E+01,+6.348718E+01
+1.546400E+01,+5.089744E+01
+1.547200E+01,+3.471795E+01
+1.548000E+01,+1.647436E+01
+1.548800E+01,+5.769231E-01
+1.549600E+01,-1.179487E+01
+1.550400E+01,-1.943590E+01
+1.551200E+01,-2.488462E+01
+1.552000E+01,-2.865385E+01
+1.552800E+01,-3.016667E+01
+1.553600E+01,-3.330769E+01
+1.554400E+01,-3.801282E+01
+1.555200E+01,-4.237179E+01
+1.556000E+01,-4.370513E+01
+1.556800E+01,-4.205128E+01
+1.557600E+01,-4.334615E+01
+1.558400E+01,-4.350000E+01
+1.559200E+01,-4.256410E+01
+1.560000E+01,-3.674359E+01
+1.560800E+01,-3.200000E+01
+1.561600E+01,-3.197436E+01
+1.562400E+01,-3.489744E+01
+1.563200E+01,-3.819231E+01
+1.564000E+01,-3.675641E+01
+1.564800E+01,-3.223077E+01
+1.565600E+01,-2.921795E+01
+1.566400E+01,-2.989744E+01
+1.567200E+01,-3.453846E+01
+1.568000E+01,-3.739744E+01
+1.568800E+01,-3.648718E+01
+1.569600E+01,-3.301282E+01
+1.570400E+01,-2.741026E+01
+1.571200E+01,-2.462821E+01
+1.572000E+01,-2.742308E+01
+1.572800E+01,-3.532051E+01
+1.573600E+01,-4.144872E+01
+1.574400E+01,-3.787179E+01
+1.575200E+01,-3.033333E+01
+1.576000E+01,-2.666667E+01
+1.576800E+01,-2.888462E+01
+1.577600E+01,-3.211538E+01
+1.578400E+01,-2.973077E+01
+1.579200E+01,-2.557692E+01
+1.580000E+01,-2.450000E+01
+1.580800E+01,-2.652564E+01
+1.581600E+01,-2.965385E+01
+1.582400E+01,-2.903846E+01
+1.583200E+01,-2.617949E+01
+1.584000E+01,-2.428205E+01
+1.584800E+01,-2.288462E+01
+1.585600E+01,-2.223077E+01
+1.586400E+01,-2.167949E+01
+1.587200E+01,-2.301282E+01
+1.588000E+01,-2.573077E+01
+1.588800E+01,-2.485897E+01
+1.589600E+01,-2.114103E+01
+1.590400E+01,-1.360256E+01
+1.591200E+01,-6.179487E+00
+1.592000E+01,+3.474359E+00
+1.592800E+01,+1.188462E+01
+1.593600E+01,+1.634615E+01
+1.594400E+01,+1.571795E+01
+1.595200E+01,+9.666667E+00
+1.596000E+01,+2.987179E+00
+1.596800E+01,-3.833333E+00
+1.597600E+01,-1.150000E+01
+1.598400E+01,-1.897436E+01
+1.599200E+01,-2.537179E+01
+1.600000E+01,-2.650000E+01
+1.600800E+01,-2.558974E+01
+1.601600E+01,-2.728205E+01
+1.602400E+01,-2.842308E+01
+1.603200E+01,-2.788462E+01
+1.604000E+01,-2.930769E+01
+1.604800E+01,-4.093590E+01
+1.605600E+01,-5.176923E+01
+1.606400E+01,-1.925641E+01
+1.607200E+01,+8.033333E+01
+1.608000E+01,+2.018846E+02
+1.608800E+01,+2.475385E+02
+1.609600E+01,+1.644103E+02
+1.610400E+01,+1.300000E+01
+1.611200E+01,-9.801282E+01
+1.612000E+01,-1.173333E+02
+1.612800E+01,-8.021795E+01
+1.613600E+01,-4.614103E+01
+1.614400E+01,-3.289744E+01
+1.615200E+01,-2.930769E+01
+1.616000E+01,-2.496154E+01
+1.616800E+01,-1.793590E+01
+1.617600E+01,-1.219231E+01
+1.618400E+01,-8.192308E+00
+1.619200E+01,-7.000000E+00
+1.620000E+01,-8.628205E+00
+1.620800E+01,-8.487179E+00
+1.621600E+01,-6.012821E+00
+1.622400E+01,+8.205128E-01
+1.623200E+01,+1.210256E+01
+1.624000E+01,+2.050000E+01
+1.624800E+01,+2.566667E+01
+1.625600E+01,+2.552564E+01
+1.626400E+01,+2.784615E+01
+1.627200E+01,+3.117949E+01
+1.628000E+01,+3.705128E+01
+1.628800E+01,+4.461538E+01
+1.629600E+01,+5.335897E+01
+1.630400E+01,+6.417949E+01
+1.631200E+01,+7.435897E+01
+1.632000E+01,+8.274359E+01
+1.632800E+01,+8.661538E+01
+1.633600E+01,+8.633333E+01
+1.634400E+01,+8.714103E+01
+1.635200E+01,+8.773077E+01
+1.636000E+01,+8.614103E+01
+1.636800E+01,+8.085897E+01
+1.637600E+01,+7.158974E+01
+1.638400E+01,+6.080769E+01
+1.639200E+01,+4.628205E+01
+1.640000E+01,+2.961538E+01
+1.640800E+01,+1.419231E+01
+1.641600E+01,-1.538462E-01
+1.642400E+01,-1.146154E+01
+1.643200E+01,-2.101282E+01
+1.644000E+01,-2.814103E+01
+1.644800E+01,-3.205128E+01
+1.645600E+01,-3.446154E+01
+1.646400E+01,-3.382051E+01
+1.647200E+01,-3.330769E+01
+1.648000E+01,-3.555128E+01
+1.648800E+01,-3.829487E+01
+1.649600E+01,-3.967949E+01
+1.650400E+01,-3.738462E+01
+1.651200E+01,-3.416667E+01
+1.652000E+01,-3.206410E+01
+1.652800E+01,-2.855128E+01
+1.653600E+01,-2.546154E+01
+1.654400E+01,-2.533333E+01
+1.655200E+01,-2.964103E+01
+1.656000E+01,-3.556410E+01
+1.656800E+01,-3.469231E+01
+1.657600E+01,-3.126923E+01
+1.658400E+01,-2.578205E+01
+1.659200E+01,-2.533333E+01
+1.660000E+01,-2.767949E+01
+1.660800E+01,-3.275641E+01
+1.661600E+01,-3.755128E+01
+1.662400E+01,-3.714103E+01
+1.663200E+01,-3.347436E+01
+1.664000E+01,-2.964103E+01
+1.664800E+01,-2.815385E+01
+1.665600E+01,-2.828205E+01
+1.666400E+01,-2.725641E+01
+1.667200E+01,-2.802564E+01
+1.668000E+01,-3.035897E+01
+1.668800E+01,-3.101282E+01
+1.669600E+01,-2.924359E+01
+1.670400E+01,-2.562821E+01
+1.671200E+01,-2.494872E+01
+1.672000E+01,-2.632051E+01
+1.672800E+01,-2.630769E+01
+1.673600E+01,-2.600000E+01
+1.674400E+01,-2.483333E+01
+1.675200E+01,-2.382051E+01
+1.676000E+01,-2.215385E+01
+1.676800E+01,-1.957692E+01
+1.677600E+01,-1.932051E+01
+1.678400E+01,-1.930769E+01
+1.679200E+01,-1.893590E+01
+1.680000E+01,-1.861538E+01
+1.680800E+01,-1.739744E+01
+1.681600E+01,-1.693590E+01
+1.682400E+01,-1.484615E+01
+1.683200E+01,-9.410256E+00
+1.684000E+01,-8.461538E-01
+1.684800E+01,+1.039744E+01
+1.685600E+01,+1.906410E+01
+1.686400E+01,+2.388462E+01
+1.687200E+01,+2.512821E+01
+1.688000E+01,+2.043590E+01
+1.688800E+01,+1.057692E+01
+1.689600E+01,-2.705128E+00
+1.690400E+01,-1.470513E+01
+1.691200E+01,-2.311538E+01
+1.692000E+01,-2.871795E+01
+1.692800E+01,-3.065385E+01
+1.693600E+01,-3.035897E+01
+1.694400E+01,-2.566667E+01
+1.695200E+01,-2.257692E+01
+1.696000E+01,-2.965385E+01
+1.696800E+01,-4.728205E+01
+1.697600E+01,-4.375641E+01
+1.698400E+01,+2.721795E+01
+1.699200E+01,+1.546795E+02
+1.700000E+01,+2.501795E+02
+1.700800E+01,+2.225513E+02
+1.701600E+01,+8.180769E+01
+1.702400E+01,-6.346154E+01
+1.703200E+01,-1.230513E+02
+1.704000E+01,-9.939744E+01
+1.704800E+01,-5.369231E+01
+1.705600E+01,-3.000000E+01
+1.706400E+01,-2.543590E+01
+1.707200E+01,-2.520513E+01
+1.708000E+01,-2.360256E+01
+1.708800E+01,-1.933333E+01
+1.709600E+01,-1.234615E+01
+1.710400E+01,-1.846154E+00
+1.711200E+01,+6.384615E+00
+1.712000E+01,+6.230769E+00
+1.712800E+01,+1.641026E+00
+1.713600E+01,-6.025641E-01
+1.714400E+01,+4.525641E+00
+1.715200E+01,+1.191026E+01
+1.716000E+01,+1.476923E+01
+1.716800E+01,+1.711538E+01
+1.717600E+01,+2.265385E+01
+1.718400E+01,+3.185897E+01
+1.719200E+01,+4.098718E+01
+1.720000E+01,+4.571795E+01
+1.720800E+01,+4.996154E+01
+1.721600E+01,+5.610256E+01
+1.722400E+01,+6.426923E+01
+1.723200E+01,+7.429487E+01
+1.724000E+01,+8.169231E+01
+1.724800E+01,+8.958974E+01
+1.725600E+01,+9.250000E+01
+1.726400E+01,+9.262821E+01
+1.727200E+01,+8.878205E+01
+1.728000E+01,+8.426923E+01
+1.728800E+01,+7.832051E+01
+1.729600E+01,+6.634615E+01
+1.730400E+01,+4.880769E+01
+1.731200E+01,+2.951282E+01
+1.732000E+01,+1.658974E+01
+1.732800E+01,+9.897436E+00
+1.733600E+01,+6.666667E-01
+1.734400E+01,-1.350000E+01
+1.735200E+01,-2.775641E+01
+1.736000E+01,-3.410256E+01
+1.736800E+01,-3.392308E+01
+1.737600E+01,-3.630769E+01
+1.738400E+01,-4.098718E+01
+1.739200E+01,-4.202564E+01
+1.740000E+01,-3.669231E+01
+1.740800E+01,-2.992308E+01
+1.741600E+01,-2.917949E+01
+1.742400E+01,-3.220513E+01
+1.743200E+01,-3.420513E+01
+1.744000E+01,-3.391026E+01
+1.744800E+01,-3.128205E+01
+1.745600E+01,-2.884615E+01
+1.746400E+01,-2.605128E+01
+1.747200E+01,-2.330769E+01
+1.748000E+01,-2.385897E+01
+1.748800E+01,-2.619231E+01
+1.749600E+01,-2.965385E+01
+1.750400E+01,-3.233333E+01
+1.751200E+01,-3.342308E+01
+1.752000E+01,-3.405128E+01
+1.752800E+01,-3.224359E+01
+1.753600E+01,-3.075641E+01
+1.754400E+01,-3.179487E+01
+1.755200E+01,-3.235897E+01
+1.756000E+01,-3.043590E+01
+1.756800E+01,-2.680769E+01
+1.757600E+01,-2.796154E+01
+1.758400E+01,-3.120513E+01
+1.759200E+01,-3.219231E+01
+1.760000E+01,-2.935897E+01
+1.760800E+01,-2.628205E+01
+1.761600E+01,-2.575641E+01
+1.762400E+01,-2.451282E+01
+1.763200E+01,-2.323077E+01
+1.764000E+01,-2.250000E+01
+1.764800E+01,-2.261538E+01
+1.765600E+01,-2.414103E+01
+1.766400E+01,-2.342308E+01
+1.767200E+01,-2.166667E+01
+1.768000E+01,-2.066667E+01
+1.768800E+01,-1.975641E+01
+1.769600E+01,-1.973077E+01
+1.770400E+01,-1.811538E+01
+1.771200E+01,-1.619231E+01
+1.772000E+01,-1.423077E+01
+1.772800E+01,-9.538462E+00
+1.773600E+01,-3.833333E+00
+1.774400E+01,+4.448718E+00
+1.775200E+01,+1.507692E+01
+1.776000E+01,+2.530769E+01
+1.776800E+01,+3.274359E+01
+1.777600E+01,+3.224359E+01
+1.778400E+01,+2.510256E+01
+1.779200E+01,+1.426923E+01
+1.780000E+01,+1.923077E+00
+1.780800E+01,-6.653846E+00
+1.781600E+01,-1.129487E+01
+1.782400E+01,-1.232051E+01
+1.783200E+01,-1.156410E+01
+1.784000E+01,-1.321795E+01
+1.784800E+01,-1.562821E+01
+1.785600E+01,-1.747436E+01
+1.786400E+01,-1.792308E+01
+1.787200E+01,-2.126923E+01
+1.788000E+01,-3.638462E+01
+1.788800E+01,-4.755128E+01
+1.789600E+01,-1.220513E+01
+1.790400E+01,+1.181667E+02
+1.791200E+01,+2.027564E+02
+1.792000E+01,+1.721410E+02
+1.792800E+01,+1.393590E+01
+1.793600E+01,-9.907692E+01
+1.794400E+01,-1.143590E+02
+1.795200E+01,-7.294872E+01
+1.796000E+01,-3.543590E+01
+1.796800E+01,-2.237179E+01
+1.797600E+01,-2.105128E+01
+1.798400E+01,-1.571795E+01
+1.799200E+01,-9.000000E+00
+1.800000E+01,-5.358974E+00
+1.800800E+01,-1.923077E+00
+1.801600E+01,+3.897436E+00
+1.802400E+01,+1.264103E+01
+1.803200E+01,+1.728205E+01
+1.804000E+01,+1.556410E+01
+1.804800E+01,+1.434615E+01
+1.805600E+01,+1.632051E+01
+1.806400E+01,+2.057692E+01
+1.807200E+01,+2.320513E+01
+1.808000E+01,+2.412821E+01
+1.808800E+01,+2.792308E+01
+1.809600E+01,+3.420513E+01
+1.810400E+01,+4.273077E+01
+1.811200E+01,+5.300000E+01
+1.812000E+01,+6.314103E+01
+1.812800E+01,+7.350000E+01
+1.813600E+01,+8.184615E+01
+1.814400E+01,+8.764103E+01
+1.815200E+01,+9.038462E+01
+1.816000E+01,+8.832051E+01
+1.816800E+01,+8.676923E+01
+1.817600E+01,+8.984615E+01
+1.818400E+01,+9.610256E+01
+1.819200E+01,+9.869231E+01
+1.820000E+01,+9.073077E+01
+1.820800E+01,+7.683333E+01
+1.821600E+01,+6.323077E+01
+1.822400E+01,+5.046154E+01
+1.823200E+01,+3.308974E+01
+1.824000E+01,+1.544872E+01
+1.824800E+01,+1.461538E+00
+1.825600E+01,-8.358974E+00
+1.826400E+01,-1.953846E+01
+1.827200E+01,-3.001282E+01
+1.828000E+01,-3.567949E+01
+1.828800E+01,-3.634615E+01
+1.829600E+01,-3.533333E+01
+1.830400E+01,-3.132051E+01
+1.831200E+01,-2.732051E+01
+1.832000E+01,-2.644872E+01
+1.832800E+01,-2.730769E+01
+1.833600E+01,-2.679487E+01
+1.834400E+01,-2.178205E+01
+1.835200E+01,-1.761538E+01
+1.836000E+01,-1.848718E+01
+1.836800E+01,-2.074359E+01
+1.837600E+01,-2.250000E+01
+1.838400E+01,-2.347436E+01
+1.839200E+01,-2.683333E+01
+1.840000E+01,-3.234615E+01
+1.840800E+01,-3.461538E+01
+1.841600E+01,-3.321795E+01
+1.842400E+01,-2.825641E+01
+1.843200E+01,-2.250000E+01
+1.844000E+01,-2.126923E+01
+1.844800E+01,-2.484615E+01
+1.845600E+01,-3.133333E+01
+1.846400E+01,-3.451282E+01
+1.847200E+01,-3.171795E+01
+1.848000E+01,-2.917949E+01
+1.848800E+01,-2.992308E+01
+1.849600E+01,-3.324359E+01
+1.850400E+01,-3.344872E+01
+1.851200E+01,-2.750000E+01
+1.852000E+01,-2.200000E+01
+1.852800E+01,-1.939744E+01
+1.853600E+01,-1.906410E+01
+1.854400E+01,-1.903846E+01
+1.855200E+01,-1.858974E+01
+1.856000E+01,-2.058974E+01
+1.856800E+01,-1.350000E+01
+1.857600E+01,-3.474359E+00
+1.858400E+01,+9.282051E+00
+1.859200E+01,+1.441026E+01
+1.860000E+01,+1.621795E+01
+1.860800E+01,+1.515385E+01
+1.861600E+01,+7.628205E+00
+1.862400E+01,-3.782051E+00
+1.863200E+01,-1.506410E+01
+1.864000E+01,-2.093590E+01
+1.864800E+01,-2.098718E+01
+1.865600E+01,-2.225641E+01
+1.866400E+01,-2.600000E+01
+1.867200E+01,-2.937179E+01
+1.868000E+01,-2.746154E+01
+1.868800E+01,-2.019231E+01
+1.869600E+01,-2.039744E+01
+1.870400E+01,-3.565385E+01
+1.871200E+01,-4.878205E+01
+1.872000E+01,-1.832051E+01
+1.872800E+01,+7.587179E+01
+1.873600E+01,+1.799103E+02
+1.874400E+01,+2.032949E+02
+1.875200E+01,+1.124103E+02
+1.876000E+01,-2.737179E+01
+1.876800E+01,-1.158846E+02
+1.877600E+01,-1.206282E+02
+1.878400E+01,-8.128205E+01
+1.879200E+01,-4.519231E+01
+1.880000E+01,-2.792308E+01
+1.880800E+01,-1.943590E+01
+1.881600E+01,-1.384615E+01
+1.882400E+01,-1.003846E+01
+1.883200E+01,-5.166667E+00
+1.884000E+01,-4.871795E-01
+1.884800E+01,+4.628205E+00
+1.885600E+01,+8.538462E+00
+1.886400E+01,+9.397436E+00
+1.887200E+01,+9.051282E+00
+1.888000E+01,+8.294872E+00
+1.888800E+01,+1.132051E+01
+1.889600E+01,+2.035897E+01
+1.890400E+01,+2.930769E+01
+1.891200E+01,+3.580769E+01
+1.892000E+01,+3.641026E+01
+1.892800E+01,+4.029487E+01
+1.893600E+01,+4.819231E+01
+1.894400E+01,+6.089744E+01
+1.895200E+01,+7.267949E+01
+1.896000E+01,+7.978205E+01
+1.896800E+01,+8.505128E+01
+1.897600E+01,+9.058974E+01
+1.898400E+01,+9.788462E+01
+1.899200E+01,+1.006538E+02
+1.900000E+01,+9.602564E+01
+1.900800E+01,+9.065385E+01
+1.901600E+01,+8.742308E+01
+1.902400E+01,+8.426923E+01
+1.903200E+01,+7.434615E+01
+1.904000E+01,+5.705128E+01
+1.904800E+01,+4.032051E+01
+1.905600E+01,+2.517949E+01
+1.906400E+01,+9.333333E+00
+1.907200E+01,-8.653846E+00
+1.908000E+01,-2.629487E+01
+1.908800E+01,-3.743590E+01
+1.909600E+01,-4.225641E+01
+1.910400E+01,-4.230769E+01
+1.911200E+01,-3.979487E+01
+1.912000E+01,-3.937179E+01
+1.912800E+01,-4.007692E+01
+1.913600E+01,-3.993590E+01
+1.914400E+01,-3.732051E+01
+1.915200E+01,-3.361538E+01
+1.916000E+01,-3.334615E+01
+1.916800E+01,-3.378205E+01
+1.917600E+01,-3.253846E+01
+1.918400E+01,-3.129487E+01
+1.919200E+01,-3.128205E+01
+1.920000E+01,-3.375641E+01
+1.920800E+01,-3.525641E+01
+1.921600E+01,-3.517949E+01
+1.922400E+01,-3.620513E+01
+1.923200E+01,-3.430769E+01
+1.924000E+01,-3.453846E+01
+1.924800E+01,-3.479487E+01
+1.925600E+01,-3.921795E+01
+1.926400E+01,-4.079487E+01
+1.927200E+01,-3.884615E+01
+1.928000E+01,-3.719231E+01
+1.928800E+01,-3.824359E+01
+1.929600E+01,-4.230769E+01
+1.930400E+01,-4.312821E+01
+1.931200E+01,-3.993590E+01
+1.932000E+01,-3.592308E+01
+1.932800E+01,-3.208974E+01
+1.933600E+01,-3.005128E+01
+1.934400E+01,-2.743590E+01
+1.935200E+01,-2.387179E+01
+1.936000E+01,-1.848718E+01
+1.936800E+01,-8.756410E+00
+1.937600E+01,+1.346154E+00
+1.938400E+01,+8.679487E+00
+1.939200E+01,+1.052564E+01
+1.940000E+01,+4.884615E+00
+1.940800E+01,-6.153846E+00
+1.941600E+01,-2.094872E+01
+1.942400E+01,-3.307692E+01
+1.943200E+01,-3.789744E+01
+1.944000E+01,-3.888462E+01
+1.944800E+01,-3.951282E+01
+1.945600E+01,-4.196154E+01
+1.946400E+01,-4.219231E+01
+1.947200E+01,-3.603846E+01
+1.948000E+01,-2.957692E+01
+1.948800E+01,-3.229487E+01
+1.949600E+01,-5.000000E+01
+1.950400E+01,-6.225641E+01
+1.951200E+01,-2.300000E+01
+1.952000E+01,+8.258974E+01
+1.952800E+01,+1.972692E+02
+1.953600E+01,+2.241410E+02
+1.954400E+01,+1.273205E+02
+1.955200E+01,-2.106410E+01
+1.956000E+01,-1.199231E+02
+1.956800E+01,-1.190641E+02
+1.957600E+01,-7.816667E+01
+1.958400E+01,-3.973077E+01
+1.959200E+01,-3.061538E+01
+1.960000E+01,-2.315385E+01
+1.960800E+01,-1.492308E+01
+1.961600E+01,-9.551282E+00
+1.962400E+01,-8.923077E+00
+1.963200E+01,-1.320513E+01
+1.964000E+01,-1.623077E+01
+1.964800E+01,-1.138462E+01
+1.965600E+01,-2.307692E+00
+1.966400E+01,+5.487179E+00
+1.967200E+01,+8.333333E+00
+1.968000E+01,+8.512821E+00
+1.968800E+01,+1.212821E+01
+1.969600E+01,+1.788462E+01
+1.970400E+01,+2.285897E+01
+1.971200E+01,+2.598718E+01
+1.972000E+01,+2.917949E+01
+1.972800E+01,+3.826923E+01
+1.973600E+01,+5.175641E+01
+1.974400E+01,+6.464103E+01
+1.975200E+01,+7.315385E+01
+1.976000E+01,+7.548718E+01
+1.976800E+01,+7.624359E+01
+1.977600E+01,+7.737179E+01
+1.978400E+01,+7.888462E+01
+1.979200E+01,+8.025641E+01
+1.980000E+01,+7.850000E+01
+1.980800E+01,+7.616667E+01
+1.981600E+01,+7.311538E+01
+1.982400E+01,+6.514103E+01
+1.983200E+01,+5.092308E+01
+1.984000E+01,+3.142308E+01
+1.984800E+01,+1.347436E+01
+1.985600E+01,-1.487179E+00
+1.986400E+01,-1.691026E+01
+1.987200E+01,-3.012821E+01
+1.988000E+01,-3.819231E+01
+1.988800E+01,-4.038462E+01
+1.989600E+01,-4.392308E+01
+1.990400E+01,-4.838462E+01
+1.991200E+01,-5.067949E+01
+1.992000E+01,-4.865385E+01
+1.992800E+01,-4.448718E+01
+1.993600E+01,-4.097436E+01
+1.994400E+01,-3.784615E+01
+1.995200E+01,-3.692308E+01
+1.996000E+01,-3.770513E+01
+1.996800E+01,-3.588462E+01
+1.997600E+01,-3.330769E+01
+1.998400E+01,-3.187179E+01
+1.999200E+01,-3.325641E+01
+2.000000E+01,-3.650000E+01
+2.000800E+01,-3.720513E+01
+2.001600E+01,-3.652564E+01
+2.002400E+01,-3.442308E+01
+2.003200E+01,-3.197436E+01
+2.004000E+01,-3.260256E+01
+2.004800E+01,-3.416667E+01
+2.005600E+01,-3.582051E+01
+2.006400E+01,-3.667949E+01
+2.007200E+01,-3.735897E+01
+2.008000E+01,-3.951282E+01
+2.008800E+01,-3.911538E+01
+2.009600E+01,-3.616667E+01
+2.010400E+01,-3.456410E+01
+2.011200E+01,-3.555128E+01
+2.012000E+01,-3.832051E+01
+2.012800E+01,-3.815385E+01
+2.013600E+01,-3.560256E+01
+2.014400E+01,-3.414103E+01
+2.015200E+01,-3.143590E+01
+2.016000E+01,-2.702564E+01
+2.016800E+01,-2.102564E+01
+2.017600E+01,-1.507692E+01
+2.018400E+01,-9.987179E+00
+2.019200E+01,-1.846154E+00
+2.020000E+01,+7.705128E+00
+2.020800E+01,+1.284615E+01
+2.021600E+01,+8.679487E+00
+2.022400E+01,-5.730769E+00
+2.023200E+01,-2.012821E+01
+2.024000E+01,-2.937179E+01
+2.024800E+01,-3.058974E+01
+2.025600E+01,-3.011538E+01
+2.026400E+01,-3.274359E+01
+2.027200E+01,-3.885897E+01
+2.028000E+01,-4.414103E+01
+2.028800E+01,-4.191026E+01
+2.029600E+01,-3.855128E+01
+2.030400E+01,-4.606410E+01
+2.031200E+01,-6.141026E+01
+2.032000E+01,-4.651282E+01
+2.032800E+01,+4.058974E+01
+2.033600E+01,+1.728205E+02
+2.034400E+01,+2.528205E+02
+2.035200E+01,+2.032821E+02
+2.036000E+01,+5.507692E+01
+2.036800E+01,-7.962821E+01
+2.037600E+01,-1.265385E+02
+2.038400E+01,-1.028718E+02
+2.039200E+01,-6.582051E+01
+2.040000E+01,-4.600000E+01
+2.040800E+01,-3.752564E+01
+2.041600E+01,-3.206410E+01
+2.042400E+01,-2.908974E+01
+2.043200E+01,-2.612821E+01
+2.044000E+01,-2.291026E+01
+2.044800E+01,-1.934615E+01
+2.045600E+01,-1.605128E+01
+2.046400E+01,-1.278205E+01
+2.047200E+01,-8.282051E+00
+2.048000E+01,-5.679487E+00
+2.048800E+01,-4.089744E+00
+2.049600E+01,-9.230769E-01
+2.050400E+01,+3.589744E+00
+2.051200E+01,+9.410256E+00
+2.052000E+01,+1.348718E+01
+2.052800E+01,+1.598718E+01
+2.053600E+01,+1.958974E+01
+2.054400E+01,+2.547436E+01
+2.055200E+01,+3.641026E+01
+2.056000E+01,+4.896154E+01
+2.056800E+01,+6.080769E+01
+2.057600E+01,+7.011538E+01
+2.058400E+01,+7.525641E+01
+2.059200E+01,+7.608974E+01
+2.060000E+01,+7.212821E+01
+2.060800E+01,+6.932051E+01
+2.061600E+01,+6.966667E+01
+2.062400E+01,+7.119231E+01
+2.063200E+01,+6.793590E+01
+2.064000E+01,+5.565385E+01
+2.064800E+01,+3.885897E+01
+2.065600E+01,+2.103846E+01
+2.066400E+01,+4.269231E+00
+2.067200E+01,-1.061538E+01
+2.068000E+01,-2.361538E+01
+2.068800E+01,-3.076923E+01
+2.069600E+01,-3.407692E+01
+2.070400E+01,-3.842308E+01
+2.071200E+01,-4.437179E+01
+2.072000E+01,-4.992308E+01
+2.072800E+01,-5.047436E+01
+2.073600E+01,-4.798718E+01
+2.074400E+01,-4.593590E+01
+2.075200E+01,-4.335897E+01
+2.076000E+01,-4.205128E+01
+2.076800E+01,-4.201282E+01
+2.077600E+01,-4.242308E+01
+2.078400E+01,-4.223077E+01
+2.079200E+01,-3.967949E+01
+2.080000E+01,-3.824359E+01
+2.080800E+01,-3.748718E+01
+2.081600E+01,-3.539744E+01
+2.082400E+01,-3.337179E+01
+2.083200E+01,-3.201282E+01
+2.084000E+01,-3.341026E+01
+2.084800E+01,-3.589744E+01
+2.085600E+01,-3.648718E+01
+2.086400E+01,-3.570513E+01
+2.087200E+01,-3.289744E+01
+2.088000E+01,-3.102564E+01
+2.088800E+01,-3.261538E+01
+2.089600E+01,-3.558974E+01
+2.090400E+01,-3.835897E+01
+2.091200E+01,-3.676923E+01
+2.092000E+01,-3.365385E+01
+2.092800E+01,-2.923077E+01
+2.093600E+01,-2.751282E+01
+2.094400E+01,-2.921795E+01
+2.095200E+01,-3.238462E+01
+2.096000E+01,-3.401282E+01
+2.096800E+01,-3.057692E+01
+2.097600E+01,-2.589744E+01
+2.098400E+01,-2.402564E+01
+2.099200E+01,-2.521795E+01
+2.100000E+01,-2.742308E+01
+2.100800E+01,-2.628205E+01
+2.101600E+01,-2.425641E+01
+2.102400E+01,-2.467949E+01
+2.103200E+01,-2.594872E+01
+2.104000E+01,-2.579487E+01
+2.104800E+01,-2.147436E+01
+2.105600E+01,-1.684615E+01
+2.106400E+01,-1.626923E+01
+2.107200E+01,-1.674359E+01
+2.108000E+01,-1.462821E+01
+2.108800E+01,-6.141026E+00
+2.109600E+01,+5.602564E+00
+2.110400E+01,+1.394872E+01
+2.111200E+01,+1.830769E+01
+2.112000E+01,+1.766667E+01
+2.112800E+01,+1.257692E+01
+2.113600E+01,+2.602564E+00
+2.114400E+01,-1.175641E+01
+2.115200E+01,-2.310256E+01
+2.116000E+01,-2.888462E+01
+2.116800E+01,-3.030769E+01
+2.117600E+01,-3.055128E+01
+2.118400E+01,-3.319231E+01
+2.119200E+01,-3.325641E+01
+2.120000E+01,-2.796154E+01
+2.120800E+01,-2.253846E+01
+2.121600E+01,-2.821795E+01
+2.122400E+01,-5.008974E+01
+2.123200E+01,-4.423077E+00
+2.124000E+01,+1.078590E+02
+2.124800E+01,+2.403462E+02
+2.125600E+01,+2.526795E+02
+2.126400E+01,+1.366154E+02
+2.127200E+01,-2.056410E+01
+2.128000E+01,-1.140000E+02
+2.128800E+01,-1.146410E+02
+2.129600E+01,-7.435897E+01
+2.130400E+01,-4.520513E+01
+2.131200E+01,-3.679487E+01
+2.132000E+01,-3.610256E+01
+2.132800E+01,-3.048718E+01
+2.133600E+01,-2.155128E+01
+2.134400E+01,-1.425641E+01
+2.135200E+01,-1.126923E+01
+2.136000E+01,-1.420513E+01
+2.136800E+01,-1.724359E+01
+2.137600E+01,-1.721795E+01
+2.138400E+01,-1.435897E+01
+2.139200E+01,-7.064103E+00
+2.140000E+01,+2.153846E+00
+2.140800E+01,+1.098718E+01
+2.141600E+01,+1.526923E+01
+2.142400E+01,+1.412821E+01
+2.143200E+01,+1.479487E+01
+2.144000E+01,+2.025641E+01
+2.144800E+01,+2.905128E+01
+2.145600E+01,+3.755128E+01
+2.146400E+01,+4.324359E+01
+2.147200E+01,+4.965385E+01
+2.148000E+01,+5.691026E+01
+2.148800E+01,+6.437179E+01
+2.149600E+01,+7.132051E+01
+2.150400E+01,+7.405128E+01
+2.151200E+01,+7.375641E+01
+2.152000E+01,+7.198718E+01
+2.152800E+01,+7.105128E+01
+2.153600E+01,+7.288462E+01
+2.154400E+01,+7.262821E+01
+2.155200E+01,+6.792308E+01
+2.156000E+01,+5.743590E+01
+2.156800E+01,+3.537179E+01
+2.157600E+01,+1.241026E+01
+2.158400E+01,-1.111538E+01
+2.159200E+01,-2.383333E+01
+2.160000E+01,-3.228205E+01
+2.160800E+01,-3.505128E+01
+2.161600E+01,-3.629487E+01
+2.162400E+01,-3.800000E+01
+2.163200E+01,-3.920513E+01
+2.164000E+01,-4.120513E+01
+2.164800E+01,-4.339744E+01
+2.165600E+01,-4.688462E+01
+2.166400E+01,-4.828205E+01
+2.167200E+01,-4.369231E+01
+2.168000E+01,-3.879487E+01
+2.168800E+01,-3.787179E+01
+2.169600E+01,-4.111538E+01
+2.170400E+01,-4.292308E+01
+2.171200E+01,-3.851282E+01
+2.172000E+01,-3.366667E+01
+2.172800E+01,-3.167949E+01
+2.173600E+01,-3.169231E+01
+2.174400E+01,-3.208974E+01
+2.175200E+01,-3.121795E+01
+2.176000E+01,-3.294872E+01
+2.176800E+01,-3.647436E+01
+2.177600E+01,-3.747436E+01
+2.178400E+01,-3.594872E+01
+2.179200E+01,-3.262821E+01
+2.180000E+01,-3.188462E+01
+2.180800E+01,-3.342308E+01
+2.181600E+01,-3.412821E+01
+2.182400E+01,-3.492308E+01
+2.183200E+01,-3.400000E+01
+2.184000E+01,-3.255128E+01
+2.184800E+01,-3.257692E+01
+2.185600E+01,-3.348718E+01
+2.186400E+01,-3.584615E+01
+2.187200E+01,-3.573077E+01
+2.188000E+01,-3.214103E+01
+2.188800E+01,-2.761538E+01
+2.189600E+01,-2.251282E+01
+2.190400E+01,-2.373077E+01
+2.191200E+01,-2.575641E+01
+2.192000E+01,-2.739744E+01
+2.192800E+01,-2.458974E+01
+2.193600E+01,-2.382051E+01
+2.194400E+01,-2.661538E+01
+2.195200E+01,-2.634615E+01
+2.196000E+01,-2.152564E+01
+2.196800E+01,-1.598718E+01
+2.197600E+01,-1.652564E+01
+2.198400E+01,-2.103846E+01
+2.199200E+01,-2.197436E+01
+2.200000E+01,-2.006410E+01
+2.200800E+01,-1.801282E+01
+2.201600E+01,-1.824359E+01
+2.202400E+01,-1.905128E+01
+2.203200E+01,-1.583333E+01
+2.204000E+01,-1.065385E+01
+2.204800E+01,-4.474359E+00
+2.205600E+01,+2.987179E+00
+2.206400E+01,+1.078205E+01
+2.207200E+01,+1.996154E+01
+2.208000E+01,+2.665385E+01
+2.208800E+01,+2.819231E+01
+2.209600E+01,+2.320513E+01
+2.210400E+01,+1.128205E+01
+2.211200E+01,-1.141026E+00
+2.212000E+01,-1.100000E+01
+2.212800E+01,-1.815385E+01
+2.213600E+01,-2.278205E+01
+2.214400E+01,-2.612821E+01
+2.215200E+01,-2.570513E+01
+2.216000E+01,-2.376923E+01
+2.216800E+01,-2.156410E+01
+2.217600E+01,-1.707692E+01
+2.218400E+01,-1.628205E+01
+2.219200E+01,-2.848718E+01
+2.220000E+01,-4.978205E+01
+2.220800E+01,-3.984615E+01
+2.221600E+01,+4.700000E+01
+2.222400E+01,+1.859231E+02
+2.223200E+01,+2.063590E+02
+2.224000E+01,+1.007564E+02
+2.224800E+01,-6.397436E+01
+2.225600E+01,-1.182308E+02
+2.226400E+01,-9.405128E+01
+2.227200E+01,-5.274359E+01
+2.228000E+01,-3.251282E+01
+2.228800E+01,-2.858974E+01
+2.229600E+01,-2.715385E+01
+2.230400E+01,-2.253846E+01
+2.231200E+01,-1.480769E+01
+2.232000E+01,-8.294872E+00
+2.232800E+01,-4.230769E+00
+2.233600E+01,-2.512821E+00
+2.234400E+01,-1.179487E+00
+2.235200E+01,+1.769231E+00
+2.236000E+01,+3.435897E+00
+2.236800E+01,+4.282051E+00
+2.237600E+01,+6.282051E+00
+2.238400E+01,+1.008974E+01
+2.239200E+01,+1.661538E+01
+2.240000E+01,+2.267949E+01
+2.240800E+01,+2.856410E+01
+2.241600E+01,+3.512821E+01
+2.242400E+01,+4.089744E+01
+2.243200E+01,+4.752564E+01
+2.244000E+01,+5.414103E+01
+2.244800E+01,+5.992308E+01
+2.245600E+01,+6.516667E+01
+2.246400E+01,+6.974359E+01
+2.247200E+01,+7.741026E+01
+2.248000E+01,+8.614103E+01
+2.248800E+01,+9.107692E+01
+2.249600E+01,+9.065385E+01
+2.250400E+01,+8.439744E+01
+2.251200E+01,+7.647436E+01
+2.252000E+01,+6.885897E+01
+2.252800E+01,+6.167949E+01
+2.253600E+01,+5.458974E+01
+2.254400E+01,+4.205128E+01
+2.255200E+01,+2.451282E+01
+2.256000E+01,+5.948718E+00
+2.256800E+01,-8.089744E+00
+2.257600E+01,-1.826923E+01
+2.258400E+01,-2.835897E+01
+2.259200E+01,-3.670513E+01
+2.260000E+01,-4.151282E+01
+2.260800E+01,-4.106410E+01
+2.261600E+01,-3.765385E+01
+2.262400E+01,-3.362821E+01
+2.263200E+01,-3.078205E+01
+2.264000E+01,-3.289744E+01
+2.264800E+01,-3.703846E+01
+2.265600E+01,-3.916667E+01
+2.266400E+01,-3.735897E+01
+2.267200E+01,-3.232051E+01
+2.268000E+01,-2.955128E+01
+2.268800E+01,-2.905128E+01
+2.269600E+01,-2.871795E+01
+2.270400E+01,-2.834615E+01
+2.271200E+01,-2.780769E+01
+2.272000E+01,-3.087179E+01
+2.272800E+01,-3.610256E+01
+2.273600E+01,-3.825641E+01
+2.274400E+01,-3.510256E+01
+2.275200E+01,-2.785897E+01
+2.276000E+01,-2.479487E+01
+2.276800E+01,-2.906410E+01
+2.277600E+01,-3.466667E+01
+2.278400E+01,-3.630769E+01
+2.279200E+01,-3.223077E+01
+2.280000E+01,-2.926923E+01
+2.280800E+01,-3.123077E+01
+2.281600E+01,-3.310256E+01
+2.282400E+01,-3.201282E+01
+2.283200E+01,-2.834615E+01
+2.284000E+01,-2.720513E+01
+2.284800E+01,-3.080769E+01
+2.285600E+01,-3.369231E+01
+2.286400E+01,-3.294872E+01
+2.287200E+01,-2.760256E+01
+2.288000E+01,-2.124359E+01
+2.288800E+01,-1.928205E+01
+2.289600E+01,-1.953846E+01
+2.290400E+01,-2.091026E+01
+2.291200E+01,-1.960256E+01
+2.292000E+01,-1.966667E+01
+2.292800E+01,-2.078205E+01
+2.293600E+01,-2.160256E+01
+2.294400E+01,-2.182051E+01
+2.295200E+01,-2.096154E+01
+2.296000E+01,-2.064103E+01
+2.296800E+01,-1.882051E+01
+2.297600E+01,-1.698718E+01
+2.298400E+01,-1.733333E+01
+2.299200E+01,-1.708974E+01
+2.300000E+01,-1.607692E+01
+2.300800E+01,-1.294872E+01
+2.301600E+01,-8.628205E+00
+2.302400E+01,-3.602564E+00
+2.303200E+01,+4.628205E+00
+2.304000E+01,+1.317949E+01
+2.304800E+01,+2.060256E+01
+2.305600E+01,+2.658974E+01
+2.306400E+01,+2.941026E+01
+2.307200E+01,+2.843590E+01
+2.308000E+01,+2.048718E+01
+2.308800E+01,+7.192308E+00
+2.309600E+01,-6.397436E+00
+2.310400E+01,-1.780769E+01
+2.311200E+01,-2.435897E+01
+2.312000E+01,-2.751282E+01
+2.312800E+01,-2.978205E+01
+2.313600E+01,-2.991026E+01
+2.314400E+01,-2.629487E+01
+2.315200E+01,-1.803846E+01
+2.316000E+01,-1.461538E+01
+2.316800E+01,-2.867949E+01
+2.317600E+01,-4.735897E+01
+2.318400E+01,-2.557692E+01
+2.319200E+01,+7.455128E+01
+2.320000E+01,+2.147436E+02
+2.320800E+01,+2.846923E+02
+2.321600E+01,+2.130000E+02
+2.322400E+01,+4.855128E+01
+2.323200E+01,-6.214103E+01
+2.324000E+01,-8.110256E+01
+2.324800E+01,-4.424359E+01
+2.325600E+01,-2.544872E+01
+2.326400E+01,-1.941026E+01
+2.327200E+01,-1.406410E+01
+2.328000E+01,-1.105128E+01
+2.328800E+01,-9.564103E+00
+2.329600E+01,-7.384615E+00
+2.330400E+01,-4.961538E+00
+2.331200E+01,-1.705128E+00
+2.332000E+01,-1.794872E-01
+2.332800E+01,+1.320513E+00
+2.333600E+01,+6.115385E+00
+2.334400E+01,+1.339744E+01
+2.335200E+01,+2.096154E+01
+2.336000E+01,+2.360256E+01
+2.336800E+01,+2.416667E+01
+2.337600E+01,+2.800000E+01
+2.338400E+01,+3.415385E+01
+2.339200E+01,+4.158974E+01
+2.340000E+01,+4.891026E+01
+2.340800E+01,+5.802564E+01
+2.341600E+01,+6.989744E+01
+2.342400E+01,+7.948718E+01
+2.343200E+01,+8.626923E+01
+2.344000E+01,+9.097436E+01
+2.344800E+01,+9.398718E+01
+2.345600E+01,+9.542308E+01
+2.346400E+01,+9.335897E+01
+2.347200E+01,+9.058974E+01
+2.348000E+01,+8.844872E+01
+2.348800E+01,+8.514103E+01
+2.349600E+01,+8.064103E+01
+2.350400E+01,+7.256410E+01
+2.351200E+01,+6.066667E+01
+2.352000E+01,+4.573077E+01
+2.352800E+01,+2.839744E+01
+2.353600E+01,+1.370513E+01
+2.354400E+01,+2.192308E+00
+2.355200E+01,-6.935897E+00
+2.356000E+01,-1.534615E+01
+2.356800E+01,-2.242308E+01
+2.357600E+01,-2.688462E+01
+2.358400E+01,-3.100000E+01
+2.359200E+01,-3.270513E+01
+2.360000E+01,-3.155128E+01
+2.360800E+01,-2.696154E+01
+2.361600E+01,-2.278205E+01
+2.362400E+01,-2.135897E+01
+2.363200E+01,-1.998718E+01
+2.364000E+01,-1.955128E+01
+2.364800E+01,-1.966667E+01
+2.365600E+01,-1.987179E+01
+2.366400E+01,-1.971795E+01
+2.367200E+01,-1.748718E+01
+2.368000E+01,-1.715385E+01
+2.368800E+01,-1.928205E+01
+2.369600E+01,-2.089744E+01
+2.370400E+01,-2.082051E+01
+2.371200E+01,-1.775641E+01
+2.372000E+01,-1.569231E+01
+2.372800E+01,-1.678205E+01
+2.373600E+01,-1.948718E+01
+2.374400E+01,-2.210256E+01
+2.375200E+01,-2.083333E+01
+2.376000E+01,-1.841026E+01
+2.376800E+01,-1.892308E+01
+2.377600E+01,-2.089744E+01
+2.378400E+01,-2.215385E+01
+2.379200E+01,-1.960256E+01
+2.380000E+01,-1.547436E+01
+2.380800E+01,-1.350000E+01
+2.381600E+01,-1.351282E+01
+2.382400E+01,-1.657692E+01
+2.383200E+01,-1.938462E+01
+2.384000E+01,-1.835897E+01
+2.384800E+01,-1.474359E+01
+2.385600E+01,-1.141026E+01
+2.386400E+01,-1.206410E+01
+2.387200E+01,-1.334615E+01
+2.388000E+01,-1.028205E+01
+2.388800E+01,-6.179487E+00
+2.389600E+01,-5.333333E+00
+2.390400E+01,-8.205128E+00
+2.391200E+01,-9.500000E+00
+2.392000E+01,-7.948718E+00
+2.392800E+01,-6.012821E+00
+2.393600E+01,-2.935897E+00
+2.394400E+01,+2.038462E+00
+2.395200E+01,+1.024359E+01
+2.396000E+01,+1.778205E+01
+2.396800E+01,+2.405128E+01
+2.397600E+01,+2.883333E+01
+2.398400E+01,+2.982051E+01
+2.399200E+01,+2.716667E+01
+2.400000E+01,+1.824359E+01
+2.400800E+01,+5.897436E+00
+2.401600E+01,-4.217949E+00
+2.402400E+01,-1.098718E+01
+2.403200E+01,-1.389744E+01
+2.404000E+01,-1.676923E+01
+2.404800E+01,-1.935897E+01
+2.405600E+01,-1.723077E+01
+2.406400E+01,-1.116667E+01
+2.407200E+01,-4.461538E+00
+2.408000E+01,-8.397436E+00
+2.408800E+01,-2.856410E+01
+2.409600E+01,-3.925641E+01
+2.410400E+01,+4.358974E+00
+2.411200E+01,+1.136026E+02
+2.412000E+01,+2.183590E+02
+2.412800E+01,+2.198718E+02
+2.413600E+01,+1.037564E+02
+2.414400E+01,-4.208974E+01
+2.415200E+01,-1.180513E+02
+2.416000E+01,-1.080769E+02
+2.416800E+01,-6.714103E+01
+2.417600E+01,-3.824359E+01
+2.418400E+01,-2.582051E+01
+2.419200E+01,-1.707692E+01
+2.420000E+01,-7.500000E+00
+2.420800E+01,-2.910256E+00
+2.421600E+01,-1.653846E+00
+2.422400E+01,-4.615385E-01
+2.423200E+01,+4.730769E+00
+2.424000E+01,+1.060256E+01
+2.424800E+01,+1.278205E+01
+2.425600E+01,+1.300000E+01
+2.426400E+01,+1.441026E+01
+2.427200E+01,+1.902564E+01
+2.428000E+01,+2.361538E+01
+2.428800E+01,+2.853846E+01
+2.429600E+01,+3.529487E+01
+2.430400E+01,+4.285897E+01
+2.431200E+01,+5.103846E+01
+2.432000E+01,+5.733333E+01
+2.432800E+01,+6.410256E+01
+2.433600E+01,+7.394872E+01
+2.434400E+01,+8.308974E+01
+2.435200E+01,+8.989744E+01
+2.436000E+01,+9.274359E+01
+2.436800E+01,+9.262821E+01
+2.437600E+01,+9.111538E+01
+2.438400E+01,+8.664103E+01
+2.439200E+01,+8.325641E+01
+2.440000E+01,+8.232051E+01
+2.440800E+01,+8.034615E+01
+2.441600E+01,+7.421795E+01
+2.442400E+01,+6.153846E+01
+2.443200E+01,+4.696154E+01
+2.444000E+01,+3.201282E+01
+2.444800E+01,+1.356410E+01
+2.445600E+01,-6.179487E+00
+2.446400E+01,-2.407692E+01
+2.447200E+01,-3.475641E+01
+2.448000E+01,-3.766667E+01
+2.448800E+01,-3.714103E+01
+2.449600E+01,-3.502564E+01
+2.450400E+01,-3.576923E+01
+2.451200E+01,-4.008974E+01
+2.452000E+01,-4.356410E+01
+2.452800E+01,-4.312821E+01
+2.453600E+01,-3.801282E+01
+2.454400E+01,-3.414103E+01
+2.455200E+01,-3.469231E+01
+2.456000E+01,-3.397436E+01
+2.456800E+01,-3.280769E+01
+2.457600E+01,-2.962821E+01
+2.458400E+01,-3.079487E+01
+2.459200E+01,-3.255128E+01
+2.460000E+01,-3.497436E+01
+2.460800E+01,-3.735897E+01
+2.461600E+01,-3.926923E+01
+2.462400E+01,-4.071795E+01
+2.463200E+01,-3.891026E+01
+2.464000E+01,-3.671795E+01
+2.464800E+01,-3.669231E+01
+2.465600E+01,-3.723077E+01
+2.466400E+01,-3.693590E+01
+2.467200E+01,-3.426923E+01
+2.468000E+01,-3.433333E+01
+2.468800E+01,-3.865385E+01
+2.469600E+01,-4.065385E+01
+2.470400E+01,-3.856410E+01
+2.471200E+01,-3.407692E+01
+2.472000E+01,-3.252564E+01
+2.472800E+01,-3.450000E+01
+2.473600E+01,-3.482051E+01
+2.474400E+01,-3.430769E+01
+2.475200E+01,-3.321795E+01
+2.476000E+01,-3.169231E+01
+2.476800E+01,-3.038462E+01
+2.477600E+01,-2.848718E+01
+2.478400E+01,-2.787179E+01
+2.479200E+01,-2.543590E+01
+2.480000E+01,-1.835897E+01
+2.480800E+01,-1.079487E+01
+2.481600E+01,-5.000000E+00
+2.482400E+01,-2.051282E+00
+2.483200E+01,+1.538462E+00
+2.484000E+01,+7.538462E+00
+2.484800E+01,+1.011538E+01
+2.485600E+01,+7.769231E+00
+2.486400E+01,+3.205128E-01
+2.487200E+01,-1.060256E+01
+2.488000E+01,-2.148718E+01
+2.488800E+01,-3.160256E+01
+2.489600E+01,-3.360256E+01
+2.490400E+01,-3.270513E+01
+2.491200E+01,-2.807692E+01
+2.492000E+01,-2.525641E+01
+2.492800E+01,-2.778205E+01
+2.493600E+01,-4.366667E+01
+2.494400E+01,-6.466667E+01
+2.495200E+01,-4.669231E+01
+2.496000E+01,+4.548718E+01
+2.496800E+01,+1.802179E+02
+2.497600E+01,+2.582821E+02
+2.498400E+01,+2.036795E+02
+2.499200E+01,+5.452564E+01
+2.500000E+01,-7.980769E+01
+2.500800E+01,-1.246795E+02
+2.501600E+01,-9.489744E+01
+2.502400E+01,-5.232051E+01
+2.503200E+01,-3.053846E+01
+2.504000E+01,-2.744872E+01
+2.504800E+01,-2.887179E+01
+2.505600E+01,-2.656410E+01
+2.506400E+01,-2.278205E+01
+2.507200E+01,-1.850000E+01
+2.508000E+01,-1.443590E+01
+2.508800E+01,-1.026923E+01
+2.509600E+01,-4.179487E+00
+2.510400E+01,-6.282051E-01
+2.511200E+01,-5.897436E-01
+2.512000E+01,-6.794872E-01
+2.512800E+01,+1.820513E+00
+2.513600E+01,+8.512821E+00
+2.514400E+01,+1.344872E+01
+2.515200E+01,+1.414103E+01
+2.516000E+01,+1.597436E+01
+2.516800E+01,+2.293590E+01
+2.517600E+01,+3.566667E+01
+2.518400E+01,+4.779487E+01
+2.519200E+01,+5.555128E+01
+2.520000E+01,+6.265385E+01
+2.520800E+01,+7.020513E+01
+2.521600E+01,+7.850000E+01
+2.522400E+01,+8.384615E+01
+2.523200E+01,+8.265385E+01
+2.524000E+01,+8.023077E+01
+2.524800E+01,+7.661538E+01
+2.525600E+01,+7.455128E+01
+2.526400E+01,+6.689744E+01
+2.527200E+01,+5.547436E+01
+2.528000E+01,+4.124359E+01
+2.528800E+01,+2.642308E+01
+2.529600E+01,+1.262821E+01
+2.530400E+01,-1.358974E+00
+2.531200E+01,-1.376923E+01
+2.532000E+01,-2.465385E+01
+2.532800E+01,-3.283333E+01
+2.533600E+01,-3.708974E+01
+2.534400E+01,-4.141026E+01
+2.535200E+01,-4.570513E+01
+2.536000E+01,-4.774359E+01
+2.536800E+01,-4.555128E+01
+2.537600E+01,-3.994872E+01
+2.538400E+01,-3.682051E+01
+2.539200E+01,-3.664103E+01
+2.540000E+01,-3.678205E+01
+2.540800E+01,-3.691026E+01
+2.541600E+01,-3.644872E+01
+2.542400E+01,-3.680769E+01
+2.543200E+01,-3.629487E+01
+2.544000E+01,-3.357692E+01
+2.544800E+01,-3.061538E+01
+2.545600E+01,-2.707692E+01
+2.546400E+01,-2.593590E+01
+2.547200E+01,-2.887179E+01
+2.548000E+01,-3.325641E+01
+2.548800E+01,-3.641026E+01
+2.549600E+01,-3.451282E+01
+2.550400E+01,-3.066667E+01
+2.551200E+01,-2.988462E+01
+2.552000E+01,-3.153846E+01
+2.552800E+01,-3.432051E+01
+2.553600E+01,-3.498718E+01
+2.554400E+01,-3.389744E+01
+2.555200E+01,-3.300000E+01
+2.556000E+01,-3.071795E+01
+2.556800E+01,-3.107692E+01
+2.557600E+01,-3.170513E+01
+2.558400E+01,-3.405128E+01
+2.559200E+01,-3.285897E+01
+2.560000E+01,-2.908974E+01
+2.560800E+01,-2.455128E+01
+2.561600E+01,-2.143590E+01
+2.562400E+01,-2.351282E+01
+2.563200E+01,-2.828205E+01
+2.564000E+01,-3.205128E+01
+2.564800E+01,-3.105128E+01
+2.565600E+01,-2.451282E+01
+2.566400E+01,-1.755128E+01
+2.567200E+01,-1.005128E+01
+2.568000E+01,-9.102564E-01
+2.568800E+01,+9.705128E+00
+2.569600E+01,+1.996154E+01
+2.570400E+01,+2.215385E+01
+2.571200E+01,+1.479487E+01
+2.572000E+01,+2.307692E+00
+2.572800E+01,-9.756410E+00
+2.573600E+01,-1.748718E+01
+2.574400E+01,-2.498718E+01
+2.575200E+01,-3.228205E+01
+2.576000E+01,-3.571795E+01
+2.576800E+01,-3.620513E+01
+2.577600E+01,-3.387179E+01
+2.578400E+01,-3.116667E+01
+2.579200E+01,-2.961538E+01
+2.580000E+01,-3.437179E+01
+2.580800E+01,-5.120513E+01
+2.581600E+01,-5.646154E+01
+2.582400E+01,-5.358974E+00
+2.583200E+01,+1.140897E+02
+2.584000E+01,+2.358462E+02
+2.584800E+01,+2.546154E+02
+2.585600E+01,+1.414872E+02
+2.586400E+01,-1.989744E+01
+2.587200E+01,-1.186154E+02
+2.588000E+01,-1.200385E+02
+2.588800E+01,-7.683333E+01
+2.589600E+01,-3.992308E+01
+2.590400E+01,-2.635897E+01
+2.591200E+01,-2.353846E+01
+2.592000E+01,-2.511538E+01
+2.592800E+01,-2.780769E+01
+2.593600E+01,-2.575641E+01
+2.594400E+01,-2.171795E+01
+2.595200E+01,-1.741026E+01
+2.596000E+01,-1.426923E+01
+2.596800E+01,-1.065385E+01
+2.597600E+01,-3.717949E+00
+2.598400E+01,+2.628205E+00
+2.599200E+01,+7.512821E+00
+2.600000E+01,+1.062821E+01
+2.600800E+01,+1.219231E+01
+2.601600E+01,+1.560256E+01
+2.602400E+01,+1.953846E+01
+2.603200E+01,+2.444872E+01
+2.604000E+01,+3.161538E+01
+2.604800E+01,+4.119231E+01
+2.605600E+01,+5.403846E+01
+2.606400E+01,+6.476923E+01
+2.607200E+01,+7.083333E+01
+2.608000E+01,+7.332051E+01
+2.608800E+01,+7.308974E+01
+2.609600E+01,+7.412821E+01
+2.610400E+01,+7.656410E+01
+2.611200E+01,+7.841026E+01
+2.612000E+01,+7.620513E+01
+2.612800E+01,+6.542308E+01
+2.613600E+01,+5.103846E+01
+2.614400E+01,+3.921795E+01
+2.615200E+01,+3.062821E+01
+2.616000E+01,+2.241026E+01
+2.616800E+01,+9.038462E+00
+2.617600E+01,-6.525641E+00
+2.618400E+01,-1.962821E+01
+2.619200E+01,-2.971795E+01
+2.620000E+01,-3.610256E+01
+2.620800E+01,-4.146154E+01
+2.621600E+01,-4.511538E+01
+2.622400E+01,-4.266667E+01
+2.623200E+01,-3.880769E+01
+2.624000E+01,-3.470513E+01
+2.624800E+01,-3.738462E+01
+2.625600E+01,-3.989744E+01
+2.626400E+01,-4.133333E+01
+2.627200E+01,-4.083333E+01
+2.628000E+01,-4.108974E+01
+2.628800E+01,-4.260256E+01
+2.629600E+01,-4.115385E+01
+2.630400E+01,-3.757692E+01
+2.631200E+01,-3.308974E+01
+2.632000E+01,-3.126923E+01
+2.632800E+01,-3.303846E+01
+2.633600E+01,-3.387179E+01
+2.634400E+01,-3.496154E+01
+2.635200E+01,-3.702564E+01
+2.636000E+01,-3.946154E+01
+2.636800E+01,-4.110256E+01
+2.637600E+01,-3.905128E+01
+2.638400E+01,-3.741026E+01
+2.639200E+01,-3.801282E+01
+2.640000E+01,-3.889744E+01
+2.640800E+01,-3.976923E+01
+2.641600E+01,-3.893590E+01
+2.642400E+01,-3.812821E+01
+2.643200E+01,-3.728205E+01
+2.644000E+01,-3.489744E+01
+2.644800E+01,-3.321795E+01
+2.645600E+01,-3.138462E+01
+2.646400E+01,-3.043590E+01
+2.647200E+01,-3.166667E+01
+2.648000E+01,-3.257692E+01
+2.648800E+01,-3.214103E+01
+2.649600E+01,-2.955128E+01
+2.650400E+01,-2.858974E+01
+2.651200E+01,-3.215385E+01
+2.652000E+01,-3.496154E+01
+2.652800E+01,-3.393590E+01
+2.653600E+01,-2.920513E+01
+2.654400E+01,-2.437179E+01
+2.655200E+01,-2.246154E+01
+2.656000E+01,-1.434615E+01
+2.656800E+01,-5.115385E+00
+2.657600E+01,+7.230769E+00
+2.658400E+01,+1.384615E+01
+2.659200E+01,+1.750000E+01
+2.660000E+01,+1.479487E+01
+2.660800E+01,+4.128205E+00
+2.661600E+01,-8.641026E+00
+2.662400E+01,-1.801282E+01
+2.663200E+01,-2.062821E+01
+2.664000E+01,-2.201282E+01
+2.664800E+01,-2.737179E+01
+2.665600E+01,-3.364103E+01
+2.666400E+01,-3.844872E+01
+2.667200E+01,-3.806410E+01
+2.668000E+01,-3.224359E+01
+2.668800E+01,-2.780769E+01
+2.669600E+01,-3.541026E+01
+2.670400E+01,-5.773077E+01
+2.671200E+01,-5.965385E+01
+2.672000E+01,+9.756410E+00
+2.672800E+01,+1.449872E+02
+2.673600E+01,+2.574744E+02
+2.674400E+01,+2.459103E+02
+2.675200E+01,+1.101538E+02
+2.676000E+01,-4.487179E+01
+2.676800E+01,-1.219359E+02
+2.677600E+01,-1.118462E+02
+2.678400E+01,-7.124359E+01
+2.679200E+01,-4.407692E+01
+2.680000E+01,-3.358974E+01
+2.680800E+01,-3.060256E+01
+2.681600E+01,-2.862821E+01
+2.682400E+01,-2.587179E+01
+2.683200E+01,-2.174359E+01
+2.684000E+01,-1.655128E+01
+2.684800E+01,-1.385897E+01
+2.685600E+01,-1.148718E+01
+2.686400E+01,-6.307692E+00
+2.687200E+01,-6.153846E-01
+2.688000E+01,+4.051282E+00
+2.688800E+01,+5.179487E+00
+2.689600E+01,+9.871795E+00
+2.690400E+01,+1.803846E+01
+2.691200E+01,+2.639744E+01
+2.692000E+01,+2.989744E+01
+2.692800E+01,+3.021795E+01
+2.693600E+01,+3.461538E+01
+2.694400E+01,+4.407692E+01
+2.695200E+01,+5.651282E+01
+2.696000E+01,+6.744872E+01
+2.696800E+01,+7.496154E+01
+2.697600E+01,+8.083333E+01
+2.698400E+01,+8.219231E+01
+2.699200E+01,+7.962821E+01
+2.700000E+01,+7.719231E+01
+2.700800E+01,+7.705128E+01
+2.701600E+01,+7.810256E+01
+2.702400E+01,+7.341026E+01
+2.703200E+01,+6.193590E+01
+2.704000E+01,+4.796154E+01
+2.704800E+01,+3.341026E+01
+2.705600E+01,+2.120513E+01
+2.706400E+01,+1.110256E+01
+2.707200E+01,+2.076923E+00
+2.708000E+01,-7.205128E+00
+2.708800E+01,-2.020513E+01
+2.709600E+01,-3.310256E+01
+2.710400E+01,-4.164103E+01
+2.711200E+01,-4.506410E+01
+2.712000E+01,-4.380769E+01
+2.712800E+01,-4.144872E+01
+2.713600E+01,-3.817949E+01
+2.714400E+01,-3.576923E+01
+2.715200E+01,-3.693590E+01
+2.716000E+01,-3.785897E+01
+2.716800E+01,-3.721795E+01
+2.717600E+01,-3.523077E+01
+2.718400E+01,-3.497436E+01
+2.719200E+01,-3.819231E+01
+2.720000E+01,-3.855128E+01
+2.720800E+01,-3.382051E+01
+2.721600E+01,-2.752564E+01
+2.722400E+01,-2.860256E+01
+2.723200E+01,-3.419231E+01
+2.724000E+01,-3.769231E+01
+2.724800E+01,-3.657692E+01
+2.725600E+01,-3.557692E+01
+2.726400E+01,-3.778205E+01
+2.727200E+01,-3.943590E+01
+2.728000E+01,-3.810256E+01
+2.728800E+01,-3.653846E+01
+2.729600E+01,-3.596154E+01
+2.730400E+01,-3.611538E+01
+2.731200E+01,-3.200000E+01
+2.732000E+01,-2.447436E+01
+2.732800E+01,-2.266667E+01
+2.733600E+01,-2.812821E+01
+2.734400E+01,-3.565385E+01
+2.735200E+01,-3.782051E+01
+2.736000E+01,-3.467949E+01
+2.736800E+01,-3.302564E+01
+2.737600E+01,-3.162821E+01
+2.738400E+01,-2.896154E+01
+2.739200E+01,-2.580769E+01
+2.740000E+01,-2.375641E+01
+2.740800E+01,-2.503846E+01
+2.741600E+01,-2.592308E+01
+2.742400E+01,-2.455128E+01
+2.743200E+01,-2.124359E+01
+2.744000E+01,-1.582051E+01
+2.744800E+01,-1.153846E+01
+2.745600E+01,-6.846154E+00
+2.746400E+01,+4.102564E-01
+2.747200E+01,+9.038462E+00
+2.748000E+01,+1.708974E+01
+2.748800E+01,+1.900000E+01
+2.749600E+01,+1.488462E+01
+2.750400E+01,+8.461538E+00
+2.751200E+01,+5.384615E-01
+2.752000E+01,-7.717949E+00
+2.752800E+01,-1.767949E+01
+2.753600E+01,-2.680769E+01
+2.754400E+01,-2.991026E+01
+2.755200E+01,-2.866667E+01
+2.756000E+01,-2.566667E+01
+2.756800E+01,-2.402564E+01
+2.757600E+01,-2.656410E+01
+2.758400E+01,-3.965385E+01
+2.759200E+01,-5.830769E+01
+2.760000E+01,-4.191026E+01
+2.760800E+01,+4.923077E+01
+2.761600E+01,+1.896026E+02
+2.762400E+01,+2.751282E+02
+2.763200E+01,+2.237436E+02
+2.764000E+01,+6.903846E+01
+2.764800E+01,-7.357692E+01
+2.765600E+01,-1.203590E+02
+2.766400E+01,-8.888462E+01
+2.767200E+01,-4.526923E+01
+2.768000E+01,-2.584615E+01
+2.768800E+01,-2.566667E+01
+2.769600E+01,-2.411538E+01
+2.770400E+01,-1.714103E+01
+2.771200E+01,-1.135897E+01
+2.772000E+01,-8.000000E+00
+2.772800E+01,-5.628205E+00
+2.773600E+01,+4.102564E-01
+2.774400E+01,+7.307692E+00
+2.775200E+01,+9.756410E+00
+2.776000E+01,+1.076923E+01
+2.776800E+01,+1.252564E+01
+2.777600E+01,+1.700000E+01
+2.778400E+01,+2.305128E+01
+2.779200E+01,+2.841026E+01
+2.780000E+01,+3.389744E+01
+2.780800E+01,+3.687179E+01
+2.781600E+01,+3.885897E+01
+2.782400E+01,+4.503846E+01
+2.783200E+01,+5.534615E+01
+2.784000E+01,+6.712821E+01
+2.784800E+01,+7.508974E+01
+2.785600E+01,+8.026923E+01
+2.786400E+01,+8.757692E+01
+2.787200E+01,+9.483333E+01
+2.788000E+01,+9.810256E+01
+2.788800E+01,+9.447436E+01
+2.789600E+01,+8.808974E+01
+2.790400E+01,+8.298718E+01
+2.791200E+01,+7.696154E+01
+2.792000E+01,+7.037179E+01
+2.792800E+01,+6.023077E+01
+2.793600E+01,+4.864103E+01
+2.794400E+01,+3.338462E+01
+2.795200E+01,+1.700000E+01
+2.796000E+01,+3.576923E+00
+2.796800E+01,-7.551282E+00
+2.797600E+01,-1.642308E+01
+2.798400E+01,-2.560256E+01
+2.799200E+01,-3.373077E+01
+2.800000E+01,-3.746154E+01
+2.800800E+01,-3.734615E+01
+2.801600E+01,-3.178205E+01
+2.802400E+01,-2.466667E+01
+2.803200E+01,-2.116667E+01
+2.804000E+01,-2.191026E+01
+2.804800E+01,-2.487179E+01
+2.805600E+01,-2.378205E+01
+2.806400E+01,-1.948718E+01
+2.807200E+01,-1.771795E+01
+2.808000E+01,-1.889744E+01
+2.808800E+01,-2.161538E+01
+2.809600E+01,-2.132051E+01
+2.810400E+01,-1.842308E+01
+2.811200E+01,-1.780769E+01
+2.812000E+01,-1.965385E+01
+2.812800E+01,-2.366667E+01
+2.813600E+01,-2.665385E+01
+2.814400E+01,-2.632051E+01
+2.815200E+01,-2.451282E+01
+2.816000E+01,-2.147436E+01
+2.816800E+01,-2.007692E+01
+2.817600E+01,-2.156410E+01
+2.818400E+01,-2.284615E+01
+2.819200E+01,-2.314103E+01
+2.820000E+01,-2.157692E+01
+2.820800E+01,-2.069231E+01
+2.821600E+01,-2.228205E+01
+2.822400E+01,-2.120513E+01
+2.823200E+01,-1.835897E+01
+2.824000E+01,-1.235897E+01
+2.824800E+01,-1.070513E+01
+2.825600E+01,-1.225641E+01
+2.826400E+01,-1.591026E+01
+2.827200E+01,-1.655128E+01
+2.828000E+01,-1.108974E+01
+2.828800E+01,-4.000000E+00
+2.829600E+01,+3.333333E+00
+2.830400E+01,+1.055128E+01
+2.831200E+01,+1.985897E+01
+2.832000E+01,+3.003846E+01
+2.832800E+01,+3.269231E+01
+2.833600E+01,+2.647436E+01
+2.834400E+01,+1.300000E+01
+2.835200E+01,-3.076923E+00
+2.836000E+01,-1.489744E+01
+2.836800E+01,-2.103846E+01
+2.837600E+01,-2.057692E+01
+2.838400E+01,-1.765385E+01
+2.839200E+01,-1.773077E+01
+2.840000E+01,-1.929487E+01
+2.840800E+01,-1.979487E+01
+2.841600E+01,-1.543590E+01
+2.842400E+01,-1.275641E+01
+2.843200E+01,-2.478205E+01
+2.844000E+01,-3.598718E+01
+2.844800E+01,-1.717949E+00
+2.845600E+01,+1.006538E+02
+2.846400E+01,+2.113462E+02
+2.847200E+01,+2.248205E+02
+2.848000E+01,+1.141667E+02
+2.848800E+01,-3.553846E+01
+2.849600E+01,-1.199231E+02
+2.850400E+01,-1.159487E+02
+2.851200E+01,-7.548718E+01
+2.852000E+01,-4.058974E+01
+2.852800E+01,-1.951282E+01
+2.853600E+01,-8.487179E+00
+2.854400E+01,-3.692308E+00
+2.855200E+01,-3.076923E+00
+2.856000E+01,+1.474359E+00
+2.856800E+01,+4.730769E+00
+2.857600E+01,+7.089744E+00
+2.858400E+01,+9.628205E+00
+2.859200E+01,+1.588462E+01
+2.860000E+01,+2.366667E+01
+2.860800E+01,+2.692308E+01
+2.861600E+01,+2.694872E+01
+2.862400E+01,+2.688462E+01
+2.863200E+01,+3.061538E+01
+2.864000E+01,+3.834615E+01
+2.864800E+01,+4.550000E+01
+2.865600E+01,+5.438462E+01
+2.865600E+01,+6.023077E+01
+2.866400E+01,+7.032051E+01
+2.867200E+01,+7.776923E+01
+2.868000E+01,+8.516667E+01
+2.868800E+01,+8.635897E+01
+2.869600E+01,+8.746154E+01
+2.870400E+01,+9.041026E+01
+2.871200E+01,+9.153846E+01
+2.872000E+01,+9.108974E+01
+2.872800E+01,+9.051282E+01
+2.873600E+01,+9.224359E+01
+2.874400E+01,+9.328205E+01
+2.875200E+01,+8.817949E+01
+2.876000E+01,+7.861538E+01
+2.876800E+01,+6.520513E+01
+2.877600E+01,+4.880769E+01
+2.878400E+01,+3.034615E+01
+2.879200E+01,+1.033333E+01
+2.880000E+01,-6.487179E+00
+2.880800E+01,-1.989744E+01
+2.881600E+01,-3.028205E+01
+2.882400E+01,-3.557692E+01
+2.883200E+01,-3.728205E+01
+2.884000E+01,-3.676923E+01
+2.884800E+01,-3.766667E+01
+2.885600E+01,-3.988462E+01
+2.886400E+01,-3.885897E+01
+2.887200E+01,-3.542308E+01
+2.888000E+01,-3.124359E+01
+2.888800E+01,-2.924359E+01
+2.889600E+01,-2.856410E+01
+2.890400E+01,-2.789744E+01
+2.891200E+01,-2.829487E+01
+2.892000E+01,-2.943590E+01
+2.892800E+01,-3.282051E+01
+2.893600E+01,-3.532051E+01
+2.894400E+01,-3.593590E+01
+2.895200E+01,-3.534615E+01
+2.896000E+01,-3.415385E+01
+2.896800E+01,-3.433333E+01
+2.897600E+01,-3.439744E+01
+2.898400E+01,-3.584615E+01
+2.899200E+01,-3.889744E+01
+2.900000E+01,-3.862821E+01
+2.900800E+01,-3.439744E+01
+2.901600E+01,-2.891026E+01
+2.902400E+01,-2.767949E+01
+2.903200E+01,-3.193590E+01
+2.904000E+01,-3.506410E+01
+2.904800E+01,-3.600000E+01
+2.905600E+01,-3.541026E+01
+2.906400E+01,-3.300000E+01
+2.907200E+01,-2.888462E+01
+2.908000E+01,-2.262821E+01
+2.908800E+01,-1.821795E+01
+2.909600E+01,-1.415385E+01
+2.910400E+01,-5.935897E+00
+2.911200E+01,+3.435897E+00
+2.912000E+01,+9.794872E+00
+2.912800E+01,+8.705128E+00
+2.913600E+01,+1.679487E+00
+2.914400E+01,-6.000000E+00
+2.915200E+01,-1.414103E+01
+2.916000E+01,-2.119231E+01
+2.916800E+01,-2.725641E+01
+2.917600E+01,-3.246154E+01
+2.918400E+01,-3.438462E+01
+2.919200E+01,-3.607692E+01
+2.920000E+01,-3.803846E+01
+2.920800E+01,-3.814103E+01
+2.921600E+01,-3.557692E+01
+2.922400E+01,-4.621795E+01
+2.923200E+01,-5.839744E+01
+2.924000E+01,-2.994872E+01
+2.924800E+01,+7.557692E+01
+2.925600E+01,+2.057308E+02
+2.926400E+01,+2.528718E+02
+2.927200E+01,+1.643077E+02
+2.928000E+01,+5.717949E+00
+2.928800E+01,-1.101410E+02
+2.929600E+01,-1.290769E+02
+2.930400E+01,-8.975641E+01
+2.931200E+01,-5.339744E+01
+2.932000E+01,-3.988462E+01
+2.932800E+01,-3.793590E+01
+2.933600E+01,-3.271795E+01
+2.934400E+01,-2.517949E+01
+2.935200E+01,-2.146154E+01
+2.936000E+01,-2.025641E+01
+2.936800E+01,-1.943590E+01
+2.937600E+01,-1.521795E+01
+2.938400E+01,-8.858974E+00
+2.939200E+01,-5.256410E+00
+2.940000E+01,-3.410256E+00
+2.940800E+01,-9.102564E-01
+2.941600E+01,+5.717949E+00
+2.942400E+01,+1.546154E+01
+2.943200E+01,+2.130769E+01
+2.944000E+01,+2.251282E+01
+2.944800E+01,+2.280769E+01
+2.945600E+01,+2.670513E+01
+2.946400E+01,+3.597436E+01
+2.947200E+01,+4.523077E+01
+2.948000E+01,+5.284615E+01
+2.948800E+01,+5.978205E+01
+2.949600E+01,+6.743590E+01
+2.950400E+01,+7.688462E+01
+2.951200E+01,+8.255128E+01
+2.952000E+01,+8.196154E+01
+2.952800E+01,+7.658974E+01
+2.953600E+01,+7.007692E+01
+2.954400E+01,+6.770513E+01
+2.955200E+01,+6.608974E+01
+2.956000E+01,+5.570513E+01
+2.956800E+01,+3.801282E+01
+2.957600E+01,+1.644872E+01
+2.958400E+01,+1.012821E+00
+2.959200E+01,-1.328205E+01
+2.960000E+01,-2.482051E+01
+2.960800E+01,-3.434615E+01
+2.961600E+01,-4.048718E+01
+2.962400E+01,-4.484615E+01
+2.963200E+01,-4.821795E+01
+2.964000E+01,-4.930769E+01
+2.964800E+01,-5.060256E+01
+2.965600E+01,-5.153846E+01
+2.966400E+01,-5.121795E+01
+2.967200E+01,-4.979487E+01
+2.968000E+01,-4.596154E+01
+2.968800E+01,-4.117949E+01
+2.969600E+01,-3.562821E+01
+2.970400E+01,-3.139744E+01
+2.971200E+01,-3.180769E+01
+2.972000E+01,-3.389744E+01
+2.972800E+01,-3.606410E+01
+2.973600E+01,-3.757692E+01
+2.974400E+01,-3.816667E+01
+2.975200E+01,-3.934615E+01
+2.976000E+01,-3.925641E+01
+2.976800E+01,-3.888462E+01
+2.977600E+01,-3.875641E+01
+2.978400E+01,-3.741026E+01
+2.979200E+01,-3.767949E+01
+2.980000E+01,-3.939744E+01
+2.980800E+01,-4.150000E+01
+2.981600E+01,-4.264103E+01
+2.982400E+01,-4.126923E+01
+2.983200E+01,-3.979487E+01
+2.984000E+01,-3.720513E+01
+2.984800E+01,-3.297436E+01
+2.985600E+01,-2.985897E+01
+2.986400E+01,-2.816667E+01
+2.987200E+01,-2.942308E+01
+2.988000E+01,-3.289744E+01
+2.988800E+01,-3.717949E+01
+2.989600E+01,-3.853846E+01
+2.990400E+01,-3.458974E+01
+2.991200E+01,-3.007692E+01
+2.992000E+01,-2.665385E+01
+2.992800E+01,-2.491026E+01
+2.993600E+01,-2.167949E+01
+2.994400E+01,-1.676923E+01
+2.995200E+01,-1.065385E+01
+2.996000E+01,-2.679487E+00
+2.996800E+01,+3.205128E+00
+2.997600E+01,+6.153846E+00
+2.998400E+01,+5.166667E+00
+2.999200E+01,-1.089744E+00
+3.000000E+01,-8.935897E+00
+3.000800E+01,-1.616667E+01
+3.001600E+01,-2.079487E+01
+3.002400E+01,-2.528205E+01
+3.003200E+01,-3.358974E+01
+3.004000E+01,-4.093590E+01
+3.004800E+01,-4.355128E+01
+3.005600E+01,-3.961538E+01
+3.006400E+01,-3.083333E+01
+3.007200E+01,-2.475641E+01
+3.008000E+01,-2.843590E+01
+3.008800E+01,-4.638462E+01
+3.009600E+01,-5.615385E+01
+3.010400E+01,-8.679487E+00
+3.011200E+01,+1.100897E+02
+3.012000E+01,+2.356795E+02
+3.012800E+01,+2.612949E+02
+3.013600E+01,+1.511923E+02
+3.014400E+01,-1.164103E+01
+3.015200E+01,-1.155769E+02
+3.016000E+01,-1.228846E+02
+3.016800E+01,-8.212821E+01
+3.017600E+01,-5.041026E+01
+3.018400E+01,-3.847436E+01
+3.019200E+01,-3.414103E+01
+3.020000E+01,-2.880769E+01
+3.020800E+01,-2.328205E+01
+3.021600E+01,-1.975641E+01
+3.022400E+01,-1.408974E+01
+3.023200E+01,-1.153846E+01
+3.024000E+01,-8.730769E+00
+3.024800E+01,-8.307692E+00
+3.025600E+01,-6.782051E+00
+3.026400E+01,-3.448718E+00
+3.027200E+01,+2.089744E+00
+3.028000E+01,+1.060256E+01
+3.028800E+01,+1.739744E+01
+3.029600E+01,+2.133333E+01
+3.030400E+01,+2.401282E+01
+3.031200E+01,+2.671795E+01
+3.032000E+01,+3.250000E+01
+3.032800E+01,+4.055128E+01
+3.033600E+01,+5.166667E+01
+3.034400E+01,+6.410256E+01
+3.035200E+01,+7.229487E+01
+3.036000E+01,+7.696154E+01
+3.036800E+01,+7.946154E+01
+3.037600E+01,+8.100000E+01
+3.038400E+01,+8.033333E+01
+3.039200E+01,+7.480769E+01
+3.040000E+01,+6.925641E+01
+3.040800E+01,+6.571795E+01
+3.041600E+01,+6.178205E+01
+3.042400E+01,+5.456410E+01
+3.043200E+01,+4.041026E+01
+3.044000E+01,+2.248718E+01
+3.044800E+01,+4.897436E+00
+3.045600E+01,-9.192308E+00
+3.046400E+01,-1.723077E+01
+3.047200E+01,-2.383333E+01
+3.048000E+01,-3.134615E+01
+3.048800E+01,-3.897436E+01
+3.049600E+01,-4.483333E+01
+3.050400E+01,-4.450000E+01
+3.051200E+01,-4.084615E+01
+3.052000E+01,-3.747436E+01
+3.052800E+01,-3.633333E+01
+3.053600E+01,-3.837179E+01
+3.054400E+01,-3.894872E+01
+3.055200E+01,-3.801282E+01
+3.056000E+01,-3.676923E+01
+3.056800E+01,-3.469231E+01
+3.057600E+01,-3.292308E+01
+3.058400E+01,-3.001282E+01
+3.059200E+01,-3.032051E+01
+3.060000E+01,-3.185897E+01
+3.060800E+01,-3.415385E+01
+3.061600E+01,-3.469231E+01
+3.062400E+01,-3.419231E+01
+3.063200E+01,-3.489744E+01
+3.064000E+01,-3.497436E+01
+3.064800E+01,-3.476923E+01
+3.065600E+01,-3.425641E+01
+3.066400E+01,-3.370513E+01
+3.067200E+01,-3.380769E+01
+3.068000E+01,-3.192308E+01
+3.068800E+01,-3.123077E+01
+3.069600E+01,-3.405128E+01
+3.070400E+01,-3.667949E+01
+3.071200E+01,-3.624359E+01
+3.072000E+01,-3.211538E+01
+3.072800E+01,-3.056410E+01
+3.073600E+01,-3.378205E+01
+3.074400E+01,-3.482051E+01
+3.075200E+01,-3.241026E+01
+3.076000E+01,-2.951282E+01
+3.076800E+01,-2.943590E+01
+3.077600E+01,-3.097436E+01
+3.078400E+01,-2.932051E+01
+3.079200E+01,-2.688462E+01
+3.080000E+01,-2.455128E+01
+3.080800E+01,-2.173077E+01
+3.081600E+01,-2.017949E+01
+3.082400E+01,-1.984615E+01
+3.083200E+01,-2.224359E+01
+3.084000E+01,-2.467949E+01
+3.084800E+01,-2.394872E+01
+3.085600E+01,-2.200000E+01
+3.086400E+01,-1.792308E+01
+3.087200E+01,-1.174359E+01
+3.088000E+01,-2.833333E+00
+3.088800E+01,+1.001282E+01
+3.089600E+01,+1.753846E+01
+3.090400E+01,+2.101282E+01
+3.091200E+01,+1.565385E+01
+3.092000E+01,+8.102564E+00
+3.092800E+01,-2.230769E+00
+3.093600E+01,-1.298718E+01
+3.094400E+01,-2.110256E+01
+3.095200E+01,-2.621795E+01
+3.096000E+01,-2.760256E+01
+3.096800E+01,-2.938462E+01
+3.097600E+01,-3.198718E+01
+3.098400E+01,-3.042308E+01
+3.099200E+01,-2.412821E+01
+3.100000E+01,-1.956410E+01
+3.100800E+01,-3.091026E+01
+3.101600E+01,-5.107692E+01
+3.102400E+01,-3.462821E+01
+3.103200E+01,+5.739744E+01
+3.104000E+01,+1.966026E+02
+3.104800E+01,+2.790385E+02
+3.105600E+01,+2.239615E+02
+3.106400E+01,+6.730769E+01
+3.107200E+01,-7.703846E+01
+3.108000E+01,-1.280641E+02
+3.108800E+01,-1.016667E+02
+3.109600E+01,-6.008974E+01
+3.110400E+01,-3.565385E+01
+3.111200E+01,-2.664103E+01
+3.112000E+01,-2.182051E+01
+3.112800E+01,-1.853846E+01
+3.113600E+01,-1.728205E+01
+3.114400E+01,-1.374359E+01
+3.115200E+01,-9.756410E+00
+3.116000E+01,-7.833333E+00
+3.116800E+01,-6.679487E+00
+3.117600E+01,-5.025641E+00
+3.118400E+01,-5.128205E-02
+3.119200E+01,+4.846154E+00
+3.120000E+01,+6.948718E+00
+3.120800E+01,+9.692308E+00
+3.121600E+01,+1.446154E+01
+3.122400E+01,+2.448718E+01
+3.123200E+01,+3.252564E+01
+3.124000E+01,+3.888462E+01
+3.124800E+01,+4.223077E+01
+3.125600E+01,+4.746154E+01
+3.126400E+01,+5.673077E+01
+3.127200E+01,+6.819231E+01
+3.128000E+01,+7.885897E+01
+3.128800E+01,+8.308974E+01
+3.129600E+01,+8.228205E+01
+3.130400E+01,+8.138462E+01
+3.131200E+01,+8.015385E+01
+3.132000E+01,+7.806410E+01
+3.132800E+01,+7.255128E+01
+3.133600E+01,+6.484615E+01
+3.134400E+01,+5.767949E+01
+3.135200E+01,+4.903846E+01
+3.136000E+01,+3.958974E+01
+3.136800E+01,+2.802564E+01
+3.137600E+01,+1.293590E+01
+3.138400E+01,-3.602564E+00
+3.139200E+01,-1.921795E+01
+3.140000E+01,-2.866667E+01
+3.140800E+01,-3.228205E+01
+3.141600E+01,-3.550000E+01
+3.142400E+01,-3.883333E+01
+3.143200E+01,-4.185897E+01
+3.144000E+01,-4.126923E+01
+3.144800E+01,-3.678205E+01
+3.145600E+01,-3.282051E+01
+3.146400E+01,-3.110256E+01
+3.147200E+01,-3.351282E+01
+3.148000E+01,-3.752564E+01
+3.148800E+01,-3.833333E+01
+3.149600E+01,-3.591026E+01
+3.150400E+01,-3.210256E+01
+3.151200E+01,-3.184615E+01
+3.152000E+01,-3.479487E+01
+3.152800E+01,-3.465385E+01
+3.153600E+01,-3.157692E+01
+3.154400E+01,-2.942308E+01
+3.155200E+01,-3.176923E+01
+3.156000E+01,-3.276923E+01
+3.156800E+01,-3.108974E+01
+3.157600E+01,-3.058974E+01
+3.158400E+01,-3.282051E+01
+3.159200E+01,-3.514103E+01
+3.160000E+01,-3.330769E+01
+3.160800E+01,-3.103846E+01
+3.161600E+01,-3.161538E+01
+3.162400E+01,-3.393590E+01
+3.163200E+01,-3.648718E+01
+3.164000E+01,-3.496154E+01
+3.164800E+01,-3.085897E+01
+3.165600E+01,-2.765385E+01
+3.166400E+01,-2.580769E+01
+3.167200E+01,-2.662821E+01
+3.168000E+01,-2.797436E+01
+3.168800E+01,-3.017949E+01
+3.169600E+01,-3.206410E+01
+3.170400E+01,-2.888462E+01
+3.171200E+01,-2.341026E+01
+3.172000E+01,-2.058974E+01
+3.172800E+01,-2.320513E+01
+3.173600E+01,-2.744872E+01
+3.174400E+01,-2.552564E+01
+3.175200E+01,-1.971795E+01
+3.176000E+01,-1.579487E+01
+3.176800E+01,-1.648718E+01
+3.177600E+01,-2.071795E+01
+3.178400E+01,-2.257692E+01
+3.179200E+01,-2.162821E+01
+3.180000E+01,-1.878205E+01
+3.180800E+01,-1.292308E+01
+3.181600E+01,-4.705128E+00
+3.182400E+01,+6.948718E+00
+3.183200E+01,+1.834615E+01
+3.184000E+01,+2.550000E+01
+3.184800E+01,+2.746154E+01
+3.185600E+01,+2.237179E+01
+3.186400E+01,+1.283333E+01
+3.187200E+01,+1.141026E+00
+3.188000E+01,-1.079487E+01
+3.188800E+01,-1.889744E+01
+3.189600E+01,-2.434615E+01
+3.190400E+01,-2.592308E+01
+3.191200E+01,-2.852564E+01
+3.192000E+01,-2.834615E+01
+3.192800E+01,-2.375641E+01
+3.193600E+01,-2.141026E+01
+3.194400E+01,-3.355128E+01
+3.195200E+01,-5.230769E+01
+3.196000E+01,-2.893590E+01
+3.196800E+01,+7.302564E+01
+3.197600E+01,+2.120513E+02
+3.198400E+01,+2.782436E+02
+3.199200E+01,+1.997821E+02
+3.200000E+01,+3.280769E+01
+3.200800E+01,-9.819231E+01
+3.201600E+01,-1.256538E+02
+3.202400E+01,-8.324359E+01
+3.203200E+01,-4.096154E+01
+3.204000E+01,-2.532051E+01
+3.204800E+01,-2.393590E+01
+3.205600E+01,-2.292308E+01
+3.206400E+01,-1.894872E+01
+3.207200E+01,-1.502564E+01
+3.208000E+01,-1.067949E+01
+3.208800E+01,-5.474359E+00
+3.209600E+01,-1.153846E+00
+3.210400E+01,+3.897436E+00
+3.211200E+01,+8.346154E+00
+3.212000E+01,+1.071795E+01
+3.212800E+01,+1.182051E+01
+3.213600E+01,+1.282051E+01
+3.214400E+01,+1.816667E+01
+3.215200E+01,+2.616667E+01
+3.216000E+01,+3.205128E+01
+3.216800E+01,+3.633333E+01
+3.217600E+01,+4.038462E+01
+3.218400E+01,+4.756410E+01
+3.219200E+01,+5.656410E+01
+3.220000E+01,+6.471795E+01
+3.220800E+01,+7.389744E+01
+3.221600E+01,+8.161538E+01
+3.222400E+01,+8.578205E+01
+3.223200E+01,+8.705128E+01
+3.224000E+01,+8.779487E+01
+3.224800E+01,+8.992308E+01
+3.225600E+01,+8.815385E+01
+3.226400E+01,+8.387179E+01
+3.227200E+01,+7.770513E+01
+3.228000E+01,+7.115385E+01
+3.228800E+01,+6.044872E+01
+3.229600E+01,+4.450000E+01
+3.230400E+01,+2.844872E+01
+3.231200E+01,+1.397436E+01
+3.232000E+01,+2.025641E+00
+3.232800E+01,-9.782051E+00
+3.233600E+01,-2.093590E+01
+3.234400E+01,-2.666667E+01
+3.235200E+01,-2.791026E+01
+3.236000E+01,-2.617949E+01
+3.236800E+01,-2.485897E+01
+3.237600E+01,-2.655128E+01
+3.238400E+01,-2.917949E+01
+3.239200E+01,-3.255128E+01
+3.240000E+01,-3.421795E+01
+3.240800E+01,-3.279487E+01
+3.241600E+01,-3.058974E+01
+3.242400E+01,-2.758974E+01
+3.243200E+01,-2.564103E+01
+3.244000E+01,-2.503846E+01
+3.244800E+01,-2.447436E+01
+3.245600E+01,-2.562821E+01
+3.246400E+01,-2.712821E+01
+3.247200E+01,-2.830769E+01
+3.248000E+01,-2.764103E+01
+3.248800E+01,-2.403846E+01
+3.249600E+01,-2.285897E+01
+3.250400E+01,-2.506410E+01
+3.251200E+01,-2.828205E+01
+3.252000E+01,-2.976923E+01
+3.252800E+01,-2.710256E+01
+3.253600E+01,-2.433333E+01
+3.254400E+01,-2.293590E+01
+3.255200E+01,-2.320513E+01
+3.256000E+01,-2.501282E+01
+3.256800E+01,-2.538462E+01
+3.257600E+01,-2.628205E+01
+3.258400E+01,-2.512821E+01
+3.259200E+01,-2.491026E+01
+3.260000E+01,-2.514103E+01
+3.260800E+01,-2.525641E+01
+3.261600E+01,-2.364103E+01
+3.262400E+01,-1.919231E+01
+3.263200E+01,-1.642308E+01
+3.264000E+01,-1.608974E+01
+3.264800E+01,-1.682051E+01
+3.265600E+01,-1.719231E+01
+3.266400E+01,-1.520513E+01
+3.267200E+01,-1.244872E+01
+3.268000E+01,-6.807692E+00
+3.268800E+01,+3.512821E+00
+3.269600E+01,+1.516667E+01
+3.270400E+01,+2.512821E+01
+3.271200E+01,+2.798718E+01
+3.272000E+01,+2.387179E+01
+3.272800E+01,+1.626923E+01
+3.273600E+01,+6.025641E+00
+3.274400E+01,-4.115385E+00
+3.275200E+01,-1.380769E+01
+3.276000E+01,-2.128205E+01
+3.276800E+01,-2.366667E+01
+3.277600E+01,-2.370513E+01
+3.278400E+01,-2.269231E+01
+3.279200E+01,-2.216667E+01
+3.280000E+01,-2.121795E+01
+3.280800E+01,-1.826923E+01
+3.281600E+01,-2.293590E+01
+3.282400E+01,-4.028205E+01
+3.283200E+01,-4.911538E+01
+3.284000E+01,-6.089744E+00
+3.284800E+01,+1.016154E+02
+3.285600E+01,+2.061667E+02
+3.286400E+01,+2.124231E+02
+3.287200E+01,+1.001282E+02
+3.288000E+01,-4.898718E+01
+3.288800E+01,-1.084744E+02
+3.289600E+01,-9.138462E+01
+3.290400E+01,-4.066667E+01
+3.291200E+01,-2.685897E+01
+3.292000E+01,-2.310256E+01
+3.292800E+01,-1.750000E+01
+3.293600E+01,-7.692308E+00
+3.294400E+01,+2.282051E+00
+3.295200E+01,+4.461538E+00
+3.296000E+01,+6.410256E-01
+3.296800E+01,-2.230769E+00
+3.297600E+01,-1.666667E-01
+3.298400E+01,+6.679487E+00
+3.299200E+01,+1.176923E+01
+3.300000E+01,+1.407692E+01
+3.300800E+01,+1.693590E+01
+3.301600E+01,+2.264103E+01
+3.302400E+01,+3.244872E+01
+3.303200E+01,+4.189744E+01
+3.304000E+01,+4.956410E+01
+3.304800E+01,+5.634615E+01
+3.305600E+01,+6.134615E+01
+3.306400E+01,+6.692308E+01
+3.307200E+01,+7.280769E+01
+3.308000E+01,+7.816667E+01
+3.308800E+01,+8.233333E+01
+3.309600E+01,+8.397436E+01
+3.310400E+01,+8.787179E+01
+3.311200E+01,+9.378205E+01
+3.312000E+01,+9.674359E+01
+3.312800E+01,+9.452564E+01
+3.313600E+01,+8.796154E+01
+3.314400E+01,+8.180769E+01
+3.315200E+01,+7.416667E+01
+3.316000E+01,+6.029487E+01
+3.316800E+01,+4.137179E+01
+3.317600E+01,+1.978205E+01
+3.318400E+01,+5.256410E-01
+3.319200E+01,-1.389744E+01
+3.320000E+01,-2.483333E+01
+3.320800E+01,-3.157692E+01
+3.321600E+01,-3.534615E+01
+3.322400E+01,-3.889744E+01
+3.323200E+01,-4.400000E+01
+3.324000E+01,-4.989744E+01
+3.324800E+01,-4.973077E+01
+3.325600E+01,-4.541026E+01
+3.326400E+01,-3.964103E+01
+3.327200E+01,-3.591026E+01
+3.328000E+01,-3.283333E+01
+3.328800E+01,-3.219231E+01
+3.329600E+01,-3.626923E+01
+3.330400E+01,-4.114103E+01
+3.331200E+01,-4.417949E+01
+3.332000E+01,-4.441026E+01
+3.332800E+01,-4.482051E+01
+3.333600E+01,-4.730769E+01
+3.334400E+01,-4.662821E+01
+3.335200E+01,-4.239744E+01
+3.336000E+01,-3.800000E+01
+3.336800E+01,-3.819231E+01
+3.337600E+01,-4.437179E+01
+3.338400E+01,-5.000000E+01
+3.339200E+01,-5.223077E+01
+3.340000E+01,-5.114103E+01
+3.340800E+01,-4.558974E+01
+3.341600E+01,-3.788462E+01
+3.342400E+01,-3.114103E+01
+3.343200E+01,-3.183333E+01
+3.344000E+01,-3.950000E+01
+3.344800E+01,-4.447436E+01
+3.345600E+01,-4.388462E+01
+3.346400E+01,-4.034615E+01
+3.347200E+01,-3.853846E+01
+3.348000E+01,-3.897436E+01
+3.348800E+01,-3.711538E+01
+3.349600E+01,-3.310256E+01
+3.350400E+01,-2.519231E+01
+3.351200E+01,-1.278205E+01
+3.352000E+01,-1.307692E+00
+3.352800E+01,+4.756410E+00
+3.353600E+01,+2.525641E+00
+3.354400E+01,-3.987179E+00
+3.355200E+01,-1.300000E+01
+3.356000E+01,-2.329487E+01
+3.356800E+01,-3.353846E+01
+3.357600E+01,-4.328205E+01
+3.358400E+01,-4.991026E+01
+3.359200E+01,-5.319231E+01
+3.360000E+01,-5.130769E+01
+3.360800E+01,-4.571795E+01
+3.361600E+01,-4.083333E+01
+3.362400E+01,-4.110256E+01
+3.363200E+01,-5.425641E+01
+3.364000E+01,-6.806410E+01
+3.364800E+01,-4.279487E+01
+3.365600E+01,+5.097436E+01
+3.366400E+01,+1.785385E+02
+3.367200E+01,+2.394487E+02
+3.368000E+01,+1.688846E+02
+3.368800E+01,+1.460256E+01
+3.369600E+01,-1.117821E+02
+3.370400E+01,-1.428077E+02
+3.371200E+01,-1.069872E+02
+3.372000E+01,-6.596154E+01
+3.372800E+01,-4.619231E+01
+3.373600E+01,-4.033333E+01
+3.374400E+01,-3.387179E+01
+3.375200E+01,-2.623077E+01
+3.376000E+01,-2.194872E+01
+3.376800E+01,-2.014103E+01
+3.377600E+01,-1.984615E+01
+3.378400E+01,-1.712821E+01
+3.379200E+01,-1.321795E+01
+3.380000E+01,-1.247436E+01
+3.380800E+01,-1.296154E+01
+3.381600E+01,-1.244872E+01
+3.382400E+01,-8.282051E+00
+3.383200E+01,-9.743590E-01
+3.384000E+01,+6.461538E+00
+3.384800E+01,+1.450000E+01
+3.385600E+01,+2.058974E+01
+3.386400E+01,+2.506410E+01
+3.387200E+01,+3.180769E+01
+3.388000E+01,+4.094872E+01
+3.388800E+01,+5.184615E+01
+3.389600E+01,+5.861538E+01
+3.390400E+01,+6.441026E+01
+3.391200E+01,+6.928205E+01
+3.392000E+01,+7.347436E+01
+3.392800E+01,+7.464103E+01
+3.393600E+01,+7.221795E+01
+3.394400E+01,+6.844872E+01
+3.395200E+01,+6.310256E+01
+3.396000E+01,+5.730769E+01
+3.396800E+01,+4.988462E+01
+3.397600E+01,+3.717949E+01
+3.398400E+01,+2.047436E+01
+3.399200E+01,+2.320513E+00
+3.400000E+01,-1.276923E+01
+3.400800E+01,-2.352564E+01
+3.401600E+01,-3.285897E+01
+3.402400E+01,-4.020513E+01
+3.403200E+01,-4.570513E+01
+3.404000E+01,-4.948718E+01
+3.404800E+01,-5.111538E+01
+3.405600E+01,-5.189744E+01
+3.406400E+01,-5.011538E+01
+3.407200E+01,-4.738462E+01
+3.408000E+01,-4.735897E+01
+3.408800E+01,-4.928205E+01
+3.409600E+01,-5.065385E+01
+3.410400E+01,-4.766667E+01
+3.411200E+01,-4.233333E+01
+3.412000E+01,-4.056410E+01
+3.412800E+01,-4.178205E+01
+3.413600E+01,-4.367949E+01
+3.414400E+01,-4.298718E+01
+3.415200E+01,-4.033333E+01
+3.416000E+01,-4.093590E+01
+3.416800E+01,-4.376923E+01
+3.417600E+01,-4.617949E+01
+3.418400E+01,-4.557692E+01
+3.419200E+01,-4.189744E+01
+3.420000E+01,-3.988462E+01
+3.420800E+01,-3.971795E+01
+3.421600E+01,-4.144872E+01
+3.422400E+01,-4.239744E+01
+3.423200E+01,-4.105128E+01
+3.424000E+01,-4.092308E+01
+3.424800E+01,-4.262821E+01
+3.425600E+01,-4.607692E+01
+3.426400E+01,-4.493590E+01
+3.427200E+01,-4.075641E+01
+3.428000E+01,-3.743590E+01
+3.428800E+01,-3.682051E+01
+3.429600E+01,-3.769231E+01
+3.430400E+01,-3.579487E+01
+3.431200E+01,-3.352564E+01
+3.432000E+01,-3.139744E+01
+3.432800E+01,-2.528205E+01
+3.433600E+01,-1.474359E+01
+3.434400E+01,-1.743590E+00
+3.435200E+01,+6.974359E+00
+3.436000E+01,+8.794872E+00
+3.436800E+01,+6.384615E+00
+3.437600E+01,-1.846154E+00
+3.438400E+01,-1.569231E+01
+3.439200E+01,-3.175641E+01
+3.440000E+01,-4.335897E+01
+3.440800E+01,-4.543590E+01
+3.441600E+01,-4.341026E+01
+3.442400E+01,-4.270513E+01
+3.443200E+01,-4.534615E+01
+3.444000E+01,-4.947436E+01
+3.444800E+01,-4.912821E+01
+3.445600E+01,-4.656410E+01
+3.446400E+01,-5.062821E+01
+3.447200E+01,-6.465385E+01
+3.448000E+01,-6.374359E+01
+3.448800E+01,-1.756410E+00
+3.449600E+01,+1.212564E+02
+3.450400E+01,+2.255256E+02
+3.451200E+01,+2.150256E+02
+3.452000E+01,+8.278205E+01
+3.452800E+01,-7.060256E+01
+3.453600E+01,-1.447692E+02
+3.454400E+01,-1.295641E+02
+3.455200E+01,-8.364103E+01
+3.456000E+01,-5.515385E+01
+3.456800E+01,-4.537179E+01
+3.457600E+01,-4.201282E+01
+3.458400E+01,-3.891026E+01
+3.459200E+01,-3.773077E+01
+3.460000E+01,-3.479487E+01
+3.460800E+01,-2.808974E+01
+3.461600E+01,-2.167949E+01
+3.462400E+01,-1.732051E+01
+3.463200E+01,-1.529487E+01
+3.464000E+01,-1.216667E+01
+3.464800E+01,-6.576923E+00
+3.465600E+01,-2.833333E+00
+3.466400E+01,-6.666667E-01
+3.467200E+01,+1.384615E+00
+3.468000E+01,+5.846154E+00
+3.468800E+01,+1.303846E+01
+3.469600E+01,+1.896154E+01
+3.470400E+01,+2.511538E+01
+3.471200E+01,+3.367949E+01
+3.472000E+01,+4.320513E+01
+3.472800E+01,+5.121795E+01
+3.473600E+01,+5.438462E+01
+3.474400E+01,+5.698718E+01
+3.475200E+01,+6.171795E+01
+3.476000E+01,+6.444872E+01
+3.476800E+01,+6.373077E+01
+3.477600E+01,+6.071795E+01
+3.478400E+01,+5.923077E+01
+3.479200E+01,+5.803846E+01
+3.480000E+01,+5.016667E+01
+3.480800E+01,+3.597436E+01
+3.481600E+01,+1.884615E+01
+3.482400E+01,+3.102564E+00
+3.483200E+01,-9.038462E+00
+3.484000E+01,-2.064103E+01
+3.484800E+01,-3.128205E+01
+3.485600E+01,-4.043590E+01
+3.486400E+01,-4.698718E+01
+3.487200E+01,-4.919231E+01
+3.488000E+01,-5.093590E+01
+3.488800E+01,-5.164103E+01
+3.489600E+01,-5.312821E+01
+3.490400E+01,-5.296154E+01
+3.491200E+01,-5.203846E+01
+3.492000E+01,-5.153846E+01
+3.492800E+01,-5.016667E+01
+3.493600E+01,-4.961538E+01
+3.494400E+01,-4.928205E+01
+3.495200E+01,-4.997436E+01
+3.496000E+01,-4.969231E+01
+3.496800E+01,-4.638462E+01
+3.497600E+01,-4.324359E+01
+3.498400E+01,-4.144872E+01
+3.499200E+01,-4.262821E+01
+3.500000E+01,-4.546154E+01
+3.500800E+01,-4.558974E+01
+3.501600E+01,-4.357692E+01
+3.502400E+01,-4.046154E+01
+3.503200E+01,-3.988462E+01
+3.504000E+01,-4.329487E+01
+3.504800E+01,-4.656410E+01
+3.505600E+01,-4.879487E+01
+3.506400E+01,-4.838462E+01
+3.507200E+01,-4.601282E+01
+3.508000E+01,-4.369231E+01
+3.508800E+01,-3.980769E+01
+3.509600E+01,-3.633333E+01
+3.510400E+01,-3.348718E+01
+3.511200E+01,-3.151282E+01
+3.512000E+01,-3.258974E+01
+3.512800E+01,-3.424359E+01
+3.513600E+01,-3.573077E+01
+3.514400E+01,-3.603846E+01
+3.515200E+01,-3.523077E+01
+3.516000E+01,-3.658974E+01
+3.516800E+01,-3.776923E+01
+3.517600E+01,-3.692308E+01
+3.518400E+01,-3.301282E+01
+3.519200E+01,-2.524359E+01
+3.520000E+01,-1.698718E+01
+3.520800E+01,-8.243590E+00
+3.521600E+01,+3.333333E+00
+3.522400E+01,+1.353846E+01
+3.523200E+01,+1.880769E+01
+3.524000E+01,+1.130769E+01
+3.524800E+01,-1.743590E+00
+3.525600E+01,-1.523077E+01
+3.526400E+01,-2.328205E+01
+3.527200E+01,-2.755128E+01
+3.528000E+01,-3.085897E+01
+3.528800E+01,-3.325641E+01
+3.529600E+01,-3.594872E+01
+3.530400E+01,-3.692308E+01
+3.531200E+01,-3.535897E+01
+3.532000E+01,-3.144872E+01
+3.532800E+01,-2.942308E+01
+3.533600E+01,-4.173077E+01
+3.534400E+01,-6.410256E+01
+3.535200E+01,-5.926923E+01
+3.536000E+01,+1.741026E+01
+3.536800E+01,+1.541154E+02
+3.537600E+01,+2.537051E+02
+3.538400E+01,+2.227179E+02
+3.539200E+01,+7.575641E+01
+3.540000E+01,-7.561538E+01
+3.540800E+01,-1.349872E+02
+3.541600E+01,-1.091795E+02
+3.542400E+01,-6.319231E+01
+3.543200E+01,-3.750000E+01
+3.544000E+01,-3.029487E+01
+3.544800E+01,-2.494872E+01
+3.545600E+01,-1.894872E+01
+3.546400E+01,-1.502564E+01
+3.547200E+01,-1.241026E+01
+3.548000E+01,-1.256410E+01
+3.548800E+01,-1.282051E+01
+3.549600E+01,-1.116667E+01
+3.550400E+01,-7.487179E+00
+3.551200E+01,-1.551282E+00
+3.552000E+01,+3.935897E+00
+3.552800E+01,+9.564103E+00
+3.553600E+01,+1.456410E+01
+3.554400E+01,+1.708974E+01
+3.555200E+01,+2.346154E+01
+3.556000E+01,+3.000000E+01
+3.556800E+01,+3.965385E+01
+3.557600E+01,+4.469231E+01
+3.558400E+01,+4.984615E+01
+3.559200E+01,+5.721795E+01
+3.560000E+01,+6.741026E+01
+3.560800E+01,+7.753846E+01
+3.561600E+01,+8.117949E+01
+3.562400E+01,+8.097436E+01
+3.563200E+01,+8.094872E+01
+3.564000E+01,+8.176923E+01
+3.564800E+01,+8.094872E+01
+3.565600E+01,+7.605128E+01
+3.566400E+01,+7.278205E+01
+3.567200E+01,+7.064103E+01
+3.568000E+01,+6.088462E+01
+3.568800E+01,+4.142308E+01
+3.569600E+01,+1.952564E+01
+3.570400E+01,+6.269231E+00
+3.571200E+01,+9.743590E-01
+3.572000E+01,-6.076923E+00
+3.572800E+01,-1.642308E+01
+3.573600E+01,-2.671795E+01
+3.574400E+01,-3.141026E+01
+3.575200E+01,-3.002564E+01
+3.576000E+01,-2.867949E+01
+3.576800E+01,-2.953846E+01
+3.577600E+01,-3.275641E+01
+3.578400E+01,-3.506410E+01
+3.579200E+01,-3.330769E+01
+3.580000E+01,-3.142308E+01
+3.580800E+01,-3.055128E+01
+3.581600E+01,-3.096154E+01
+3.582400E+01,-3.126923E+01
+3.583200E+01,-2.924359E+01
+3.584000E+01,-2.715385E+01
+3.584800E+01,-2.520513E+01
+3.585600E+01,-2.405128E+01
+3.586400E+01,-2.439744E+01
+3.587200E+01,-2.379487E+01
+3.588000E+01,-2.387179E+01
+3.588800E+01,-2.500000E+01
+3.589600E+01,-2.732051E+01
+3.590400E+01,-2.879487E+01
+3.591200E+01,-2.735897E+01
+3.592000E+01,-2.503846E+01
+3.592800E+01,-2.235897E+01
+3.593600E+01,-2.347436E+01
+3.594400E+01,-2.737179E+01
+3.595200E+01,-3.065385E+01
+3.596000E+01,-2.967949E+01
+3.596800E+01,-2.415385E+01
+3.597600E+01,-2.139744E+01
+3.598400E+01,-2.300000E+01
+3.599200E+01,-2.532051E+01
+3.600000E+01,-2.500000E+01
+3.600800E+01,-2.114103E+01
+3.601600E+01,-2.023077E+01
+3.602400E+01,-2.333333E+01
+3.603200E+01,-2.576923E+01
+3.604000E+01,-2.494872E+01
+3.604800E+01,-2.056410E+01
+3.605600E+01,-1.752564E+01
+3.606400E+01,-1.624359E+01
+3.607200E+01,-1.398718E+01
+3.608000E+01,-1.208974E+01
+3.608800E+01,-1.083333E+01
+3.609600E+01,-1.178205E+01
+3.610400E+01,-1.293590E+01
+3.611200E+01,-1.158974E+01
+3.612000E+01,-1.020513E+01
+3.612800E+01,-7.256410E+00
+3.613600E+01,-5.128205E-02
+3.614400E+01,+1.194872E+01
+3.615200E+01,+2.600000E+01
+3.616000E+01,+3.448718E+01
+3.616800E+01,+3.633333E+01
+3.617600E+01,+3.312821E+01
+3.618400E+01,+2.383333E+01
+3.619200E+01,+1.030769E+01
+3.620000E+01,-4.576923E+00
+3.620800E+01,-1.396154E+01
+3.621600E+01,-1.841026E+01
+3.622400E+01,-1.903846E+01
+3.623200E+01,-1.676923E+01
+3.624000E+01,-1.198718E+01
+3.624800E+01,-5.705128E+00
+3.625600E+01,-5.333333E+00
+3.626400E+01,-1.683333E+01
+3.627200E+01,-3.770513E+01
+3.628000E+01,-3.300000E+01
+3.628800E+01,+4.219231E+01
+3.629600E+01,+1.722564E+02
+3.630400E+01,+2.656026E+02
+3.631200E+01,+2.331923E+02
+3.632000E+01,+9.107692E+01
+3.632800E+01,-5.152564E+01
+3.633600E+01,-1.089487E+02
+3.634400E+01,-8.523077E+01
+3.635200E+01,-3.984615E+01
+3.636000E+01,-1.414103E+01
+3.636800E+01,-7.205128E+00
+3.637600E+01,-6.333333E+00
+3.638400E+01,-4.833333E+00
+3.639200E+01,-2.358974E+00
+3.640000E+01,+3.205128E-01
+3.640800E+01,+5.743590E+00
+3.641600E+01,+1.203846E+01
+3.642400E+01,+1.616667E+01
+3.643200E+01,+1.800000E+01
+3.644000E+01,+1.819231E+01
+3.644800E+01,+2.075641E+01
+3.645600E+01,+2.544872E+01
+3.646400E+01,+2.997436E+01
+3.647200E+01,+3.466667E+01
+3.648000E+01,+3.835897E+01
+3.648800E+01,+4.350000E+01
+3.649600E+01,+5.067949E+01
+3.650400E+01,+5.833333E+01
+3.651200E+01,+6.765385E+01
+3.652000E+01,+7.624359E+01
+3.652800E+01,+8.223077E+01
+3.653600E+01,+8.529487E+01
+3.654400E+01,+8.638462E+01
+3.655200E+01,+8.910256E+01
+3.656000E+01,+8.878205E+01
+3.656800E+01,+9.047436E+01
+3.657600E+01,+9.338462E+01
+3.658400E+01,+9.785897E+01
+3.659200E+01,+9.583333E+01
+3.660000E+01,+8.419231E+01
+3.660800E+01,+6.880769E+01
+3.661600E+01,+5.284615E+01
+3.662400E+01,+3.906410E+01
+3.663200E+01,+2.660256E+01
+3.664000E+01,+1.448718E+01
+3.664800E+01,+4.320513E+00
+3.665600E+01,-6.025641E+00
+3.666400E+01,-1.484615E+01
+3.667200E+01,-1.984615E+01
+3.668000E+01,-2.112821E+01
+3.668800E+01,-1.891026E+01
+3.669600E+01,-1.782051E+01
+3.670400E+01,-1.900000E+01
+3.671200E+01,-2.058974E+01
+3.672000E+01,-2.132051E+01
+3.672800E+01,-1.835897E+01
+3.673600E+01,-1.452564E+01
+3.674400E+01,-1.283333E+01
+3.675200E+01,-1.330769E+01
+3.676000E+01,-1.591026E+01
+3.676800E+01,-1.684615E+01
+3.677600E+01,-1.575641E+01
+3.678400E+01,-1.471795E+01
+3.679200E+01,-1.400000E+01
+3.680000E+01,-1.570513E+01
+3.680800E+01,-1.770513E+01
+3.681600E+01,-1.887179E+01
+3.682400E+01,-2.030769E+01
+3.683200E+01,-2.034615E+01
+3.684000E+01,-1.964103E+01
+3.684800E+01,-1.829487E+01
+3.685600E+01,-1.742308E+01
+3.686400E+01,-1.871795E+01
+3.687200E+01,-1.839744E+01
+3.688000E+01,-1.714103E+01
+3.688800E+01,-1.683333E+01
+3.689600E+01,-1.726923E+01
+3.690400E+01,-1.743590E+01
+3.691200E+01,-1.380769E+01
+3.692000E+01,-1.187179E+01
+3.692800E+01,-1.093590E+01
+3.693600E+01,-1.138462E+01
+3.694400E+01,-1.042308E+01
+3.695200E+01,-8.705128E+00
+3.696000E+01,-8.666667E+00
+3.696800E+01,-6.820513E+00
+3.697600E+01,-1.012821E+00
+3.698400E+01,+9.743590E+00
+3.699200E+01,+2.117949E+01
+3.700000E+01,+2.764103E+01
+3.700800E+01,+3.050000E+01
+3.701600E+01,+2.778205E+01
+3.702400E+01,+1.729487E+01
+3.703200E+01,+1.935897E+00
+3.704000E+01,-1.212821E+01
+3.704800E+01,-1.803846E+01
+3.705600E+01,-1.889744E+01
+3.706400E+01,-1.929487E+01
+3.707200E+01,-1.885897E+01
+3.708000E+01,-1.739744E+01
+3.708800E+01,-1.320513E+01
+3.709600E+01,-9.025641E+00
+3.710400E+01,-1.243590E+01
+3.711200E+01,-2.783333E+01
+3.712000E+01,-4.025641E+01
+3.712800E+01,-7.628205E+00
+3.713600E+01,+8.870513E+01
+3.714400E+01,+1.931923E+02
+3.715200E+01,+2.134231E+02
+3.716000E+01,+1.156795E+02
+3.716800E+01,-2.882051E+01
+3.717600E+01,-1.185641E+02
+3.718400E+01,-1.211538E+02
+3.719200E+01,-7.741026E+01
+3.720000E+01,-3.982051E+01
+3.720800E+01,-2.325641E+01
+3.721600E+01,-1.191026E+01
+3.722400E+01,-4.410256E+00
+3.723200E+01,-7.692308E-02
+3.724000E+01,-2.910256E+00
+3.724800E+01,-1.833333E+00
+3.725600E+01,+2.730769E+00
+3.726400E+01,+8.512821E+00
+3.727200E+01,+1.391026E+01
+3.728000E+01,+1.889744E+01
+3.728800E+01,+2.371795E+01
+3.729600E+01,+2.401282E+01
+3.730400E+01,+2.242308E+01
+3.731200E+01,+2.450000E+01
+3.732000E+01,+3.114103E+01
+3.732800E+01,+4.024359E+01
+3.733600E+01,+4.641026E+01
+3.734400E+01,+5.071795E+01
+3.735200E+01,+5.734615E+01
+3.736000E+01,+6.589744E+01
+3.736800E+01,+7.593590E+01
+3.737600E+01,+8.430769E+01
+3.738400E+01,+9.002564E+01
+3.739200E+01,+9.497436E+01
+3.740000E+01,+9.796154E+01
+3.740800E+01,+9.916667E+01
+3.741600E+01,+9.592308E+01
+3.742400E+01,+8.676923E+01
+3.743200E+01,+7.723077E+01
+3.744000E+01,+7.037179E+01
+3.744800E+01,+6.506410E+01
+3.745600E+01,+5.462821E+01
+3.746400E+01,+3.473077E+01
+3.747200E+01,+1.215385E+01
+3.748000E+01,-8.320513E+00
+3.748800E+01,-2.388462E+01
+3.749600E+01,-3.351282E+01
+3.750400E+01,-3.826923E+01
+3.751200E+01,-3.735897E+01
+3.752000E+01,-3.567949E+01
+3.752800E+01,-3.635897E+01
+3.753600E+01,-3.807692E+01
+3.754400E+01,-4.082051E+01
+3.755200E+01,-3.964103E+01
+3.756000E+01,-3.856410E+01
+3.756800E+01,-3.585897E+01
+3.757600E+01,-3.487179E+01
+3.758400E+01,-3.441026E+01
+3.759200E+01,-3.360256E+01
+3.760000E+01,-3.258974E+01
+3.760800E+01,-3.023077E+01
+3.761600E+01,-2.988462E+01
+3.762400E+01,-3.226923E+01
+3.763200E+01,-3.703846E+01
+3.764000E+01,-4.270513E+01
+3.764800E+01,-4.446154E+01
+3.765600E+01,-4.315385E+01
+3.766400E+01,-4.089744E+01
+3.767200E+01,-3.871795E+01
+3.768000E+01,-3.787179E+01
+3.768800E+01,-3.653846E+01
+3.769600E+01,-3.726923E+01
+3.770400E+01,-4.164103E+01
+3.771200E+01,-4.596154E+01
+3.772000E+01,-4.657692E+01
+3.772800E+01,-3.916667E+01
+3.773600E+01,-2.715385E+01
+3.774400E+01,-1.669231E+01
+3.775200E+01,-8.487179E+00
+3.776000E+01,-3.730769E+00
+3.776800E+01,-9.358974E-01
+3.777600E+01,+9.102564E-01
+3.778400E+01,+1.333333E+00
+3.779200E+01,+1.256410E+00
+3.780000E+01,-3.038462E+00
+3.780800E+01,-1.105128E+01
+3.781600E+01,-1.942308E+01
+3.782400E+01,-2.751282E+01
+3.783200E+01,-3.378205E+01
+3.784000E+01,-3.917949E+01
+3.784800E+01,-4.217949E+01
+3.785600E+01,-4.196154E+01
+3.786400E+01,-4.103846E+01
+3.787200E+01,-3.675641E+01
+3.788000E+01,-3.092308E+01
+3.788800E+01,-4.164103E+01
+3.789600E+01,-3.930769E+01
+3.790400E+01,+1.156410E+01
+3.791200E+01,+1.277308E+02
+3.792000E+01,+2.201026E+02
+3.792800E+01,+2.009231E+02
+3.793600E+01,+7.096154E+01
+3.794400E+01,-7.115385E+01
+3.795200E+01,-1.336667E+02
+3.796000E+01,-1.136795E+02
+3.796800E+01,-6.639744E+01
+3.797600E+01,-3.650000E+01
+3.798400E+01,-2.701282E+01
+3.799200E+01,-2.424359E+01
+3.800000E+01,-2.298718E+01
+3.800800E+01,-2.073077E+01
+3.801600E+01,-1.724359E+01
+3.802400E+01,-1.270513E+01
+3.803200E+01,-8.064103E+00
+3.804000E+01,-6.448718E+00
+3.804800E+01,-4.358974E+00
+3.805600E+01,+1.294872E+00
+3.806400E+01,+8.358974E+00
+3.807200E+01,+1.311538E+01
+3.808000E+01,+1.308974E+01
+3.808800E+01,+1.407692E+01
+3.809600E+01,+1.929487E+01
+3.810400E+01,+2.541026E+01
+3.811200E+01,+3.176923E+01
+3.812000E+01,+3.770513E+01
+3.812800E+01,+4.505128E+01
+3.813600E+01,+5.448718E+01
+3.814400E+01,+6.382051E+01
+3.815200E+01,+7.391026E+01
+3.816000E+01,+8.134615E+01
+3.816800E+01,+8.392308E+01
+3.817600E+01,+8.347436E+01
+3.818400E+01,+8.114103E+01
+3.819200E+01,+7.983333E+01
+3.820000E+01,+7.796154E+01
+3.820800E+01,+7.398718E+01
+3.821600E+01,+6.561538E+01
+3.822400E+01,+5.219231E+01
+3.823200E+01,+3.669231E+01
+3.824000E+01,+2.006410E+01
+3.824800E+01,+4.448718E+00
+3.825600E+01,-1.116667E+01
+3.826400E+01,-2.524359E+01
+3.827200E+01,-3.567949E+01
+3.828000E+01,-4.300000E+01
+3.828800E+01,-4.661538E+01
+3.829600E+01,-4.864103E+01
+3.830400E+01,-4.705128E+01
+3.831200E+01,-4.130769E+01
+3.832000E+01,-3.796154E+01
+3.832800E+01,-3.865385E+01
+3.833600E+01,-4.082051E+01
+3.834400E+01,-3.916667E+01
+3.835200E+01,-3.317949E+01
+3.836000E+01,-2.951282E+01
+3.836800E+01,-2.942308E+01
+3.837600E+01,-3.153846E+01
+3.838400E+01,-3.301282E+01
+3.839200E+01,-3.092308E+01
+3.840000E+01,-2.873077E+01
+3.840800E+01,-2.888462E+01
+3.841600E+01,-3.320513E+01
+3.842400E+01,-4.005128E+01
+3.843200E+01,-4.255128E+01
+3.844000E+01,-3.915385E+01
+3.844800E+01,-3.205128E+01
+3.845600E+01,-2.726923E+01
+3.846400E+01,-2.924359E+01
+3.847200E+01,-3.369231E+01
+3.848000E+01,-3.684615E+01
+3.848800E+01,-3.689744E+01
+3.849600E+01,-3.452564E+01
+3.850400E+01,-3.328205E+01
+3.851200E+01,-3.224359E+01
+3.852000E+01,-3.120513E+01
+3.852800E+01,-3.019231E+01
+3.853600E+01,-2.762821E+01
+3.854400E+01,-2.528205E+01
+3.855200E+01,-1.828205E+01
+3.856000E+01,-8.051282E+00
+3.856800E+01,+5.756410E+00
+3.857600E+01,+1.664103E+01
+3.858400E+01,+1.878205E+01
+3.859200E+01,+1.035897E+01
+3.860000E+01,-5.871795E+00
+3.860800E+01,-1.979487E+01
+3.861600E+01,-2.712821E+01
+3.862400E+01,-2.992308E+01
+3.863200E+01,-3.260256E+01
+3.864000E+01,-3.808974E+01
+3.864800E+01,-4.176923E+01
+3.865600E+01,-4.083333E+01
+3.866400E+01,-3.587179E+01
+3.867200E+01,-3.088462E+01
+3.868000E+01,-3.606410E+01
+3.868800E+01,-5.153846E+01
+3.869600E+01,-5.346154E+01
+3.870400E+01,-8.076923E-01
+3.871200E+01,+1.162949E+02
+3.872000E+01,+2.301154E+02
+3.872800E+01,+2.443846E+02
+3.873600E+01,+1.339872E+02
+3.874400E+01,-2.183333E+01
+3.875200E+01,-1.158590E+02
+3.876000E+01,-1.184872E+02
+3.876800E+01,-7.791026E+01
+3.877600E+01,-4.619231E+01
+3.878400E+01,-3.644872E+01
+3.879200E+01,-3.267949E+01
+3.880000E+01,-2.685897E+01
+3.880800E+01,-2.108974E+01
+3.881600E+01,-1.603846E+01
+3.882400E+01,-1.325641E+01
+3.883200E+01,-1.062821E+01
+3.884000E+01,-8.897436E+00
+3.884800E+01,-9.102564E+00
+3.885600E+01,-7.923077E+00
+3.886400E+01,-5.320513E+00
+3.887200E+01,-5.769231E-01
+3.888000E+01,+6.269231E+00
+3.888800E+01,+1.616667E+01
+3.889600E+01,+2.921795E+01
+3.890400E+01,+3.805128E+01
+3.891200E+01,+4.221795E+01
+3.892000E+01,+4.243590E+01
+3.892800E+01,+4.564103E+01
+3.893600E+01,+5.208974E+01
+3.894400E+01,+6.037179E+01
+3.895200E+01,+6.953846E+01
+3.896000E+01,+7.671795E+01
+3.896800E+01,+8.239744E+01
+3.897600E+01,+8.423077E+01
+3.898400E+01,+8.192308E+01
+3.899200E+01,+7.748718E+01
+3.900000E+01,+7.148718E+01
+3.900800E+01,+6.762821E+01
+3.901600E+01,+6.400000E+01
+3.902400E+01,+5.496154E+01
+3.903200E+01,+3.948718E+01
+3.904000E+01,+1.974359E+01
+3.904800E+01,+3.230769E+00
+3.905600E+01,-7.884615E+00
+3.906400E+01,-1.710256E+01
+3.907200E+01,-2.412821E+01
+3.908000E+01,-2.967949E+01
+3.908800E+01,-3.305128E+01
+3.909600E+01,-3.544872E+01
+3.910400E+01,-3.996154E+01
+3.911200E+01,-4.380769E+01
+3.912000E+01,-4.569231E+01
+3.912800E+01,-4.396154E+01
+3.913600E+01,-3.898718E+01
+3.914400E+01,-3.607692E+01
+3.915200E+01,-3.578205E+01
+3.916000E+01,-3.728205E+01
+3.916800E+01,-3.738462E+01
+3.917600E+01,-3.317949E+01
+3.918400E+01,-2.914103E+01
+3.919200E+01,-2.808974E+01
+3.920000E+01,-3.080769E+01
+3.920800E+01,-3.423077E+01
+3.921600E+01,-3.276923E+01
+3.922400E+01,-3.279487E+01
+3.923200E+01,-3.276923E+01
+3.924000E+01,-3.533333E+01
+3.924800E+01,-3.464103E+01
+3.925600E+01,-3.146154E+01
+3.926400E+01,-2.787179E+01
+3.927200E+01,-2.571795E+01
