+1.463700E+01,-5.619231E+01
+1.464500E+01,-6.176923E+01
+1.465300E+01,-1.693590E+01
+1.466100E+01,+9.187179E+01
+1.466900E+01,+2.045128E+02
+1.467700E+01,+2.326410E+02
+1.468500E+01,+1.473846E+02
+1.469300E+01,+1.143590E+01
+1.470100E+01,-7.133333E+01
+1.470900E+01,-8.608974E+01
+1.471700E+01,-5.864103E+01
+1.472500E+01,-4.301282E+01
+1.473300E+01,-3.700000E+01
+1.474100E+01,-3.506410E+01
+1.474900E+01,-3.034615E+01
+1.475700E+01,-2.189744E+01
+1.476500E+01,-1.788462E+01
+1.477300E+01,-1.906410E+01
+1.478100E+01,-1.970513E+01
+1.478900E+01,-1.366667E+01
+1.479700E+01,-4.217949E+00
+1.480500E+01,-1.307692E+00
+1.481300E+01,-2.897436E+00
+1.482100E+01,-1.628205E+00
+1.482900E+01,+6.461538E+00
+1.483700E+01,+1.935897E+01
+1.484500E+01,+3.029487E+01
+1.485300E+01,+3.906410E+01
+1.486100E+01,+4.601282E+01
+1.486900E+01,+5.351282E+01
+1.487700E+01,+6.584615E+01
+1.488500E+01,+7.925641E+01
+1.489300E+01,+9.005128E+01
+1.490100E+01,+9.641026E+01
+1.490900E+01,+1.016410E+02
+1.491700E+01,+1.110128E+02
+1.492500E+01,+1.192308E+02
+1.493300E+01,+1.195641E+02
+1.494100E+01,+1.090128E+02
+1.494900E+01,+9.101282E+01
+1.495700E+01,+7.223077E+01
+1.496500E+01,+5.105128E+01
+1.497300E+01,+2.639744E+01
+1.498100E+01,+2.679487E+00
+1.498900E+01,-1.438462E+01
+1.499700E+01,-2.229487E+01
+1.500500E+01,-2.757692E+01
+1.501300E+01,-3.402564E+01
+1.502100E+01,-3.912821E+01
+1.502900E+01,-4.323077E+01
+1.503700E+01,-4.602564E+01
+1.504500E+01,-4.878205E+01
+1.505300E+01,-4.928205E+01
+1.506100E+01,-4.775641E+01
+1.506900E+01,-4.534615E+01
+1.507700E+01,-4.132051E+01
+1.508500E+01,-3.915385E+01
+1.509300E+01,-3.950000E+01
+1.510100E+01,-4.180769E+01
+1.510900E+01,-4.101282E+01
+1.511700E+01,-3.529487E+01
+1.512500E+01,-2.905128E+01
+1.513300E+01,-2.373077E+01
+1.514100E+01,-2.226923E+01
+1.514900E+01,-2.479487E+01
+1.515700E+01,-2.887179E+01
+1.516500E+01,-3.310256E+01
+1.517300E+01,-3.264103E+01
+1.518100E+01,-2.805128E+01
+1.518900E+01,-2.294872E+01
+1.519700E+01,-2.124359E+01
+1.520500E+01,-2.693590E+01
+1.521300E+01,-3.371795E+01
+1.522100E+01,-3.560256E+01
+1.522900E+01,-3.246154E+01
+1.523700E+01,-2.741026E+01
+1.524500E+01,-2.630769E+01
+1.525300E+01,-2.752564E+01
+1.526100E+01,-2.844872E+01
+1.526900E+01,-2.902564E+01
+1.527700E+01,-2.746154E+01
+1.528500E+01,-2.443590E+01
+1.529300E+01,-1.720513E+01
+1.530100E+01,-4.897436E+00
+1.530900E+01,+7.012821E+00
+1.531700E+01,+1.411538E+01
+1.532500E+01,+1.235897E+01
+1.533300E+01,+4.243590E+00
+1.534100E+01,-5.589744E+00
+1.534900E+01,-1.762821E+01
+1.535700E+01,-2.905128E+01
+1.536500E+01,-3.660256E+01
+1.537300E+01,-3.714103E+01
+1.538100E+01,-3.502564E+01
+1.538900E+01,-3.289744E+01
+1.539700E+01,-2.848718E+01
+1.540500E+01,-2.628205E+01
+1.541300E+01,-3.487179E+01
+1.542100E+01,-5.508974E+01
+1.542900E+01,-5.433333E+01
+1.543700E+01,+1.017949E+01
+1.544500E+01,+1.335385E+02
+1.545300E+01,+2.421795E+02
+1.546100E+01,+2.460641E+02
+1.546900E+01,+1.364615E+02
+1.547700E+01,-4.948718E+00
+1.548500E+01,-9.050000E+01
+1.549300E+01,-9.785897E+01
+1.550100E+01,-6.802564E+01
+1.550900E+01,-4.230769E+01
+1.551700E+01,-3.191026E+01
+1.552500E+01,-3.093590E+01
+1.553300E+01,-2.892308E+01
+1.554100E+01,-2.444872E+01
+1.554900E+01,-2.093590E+01
+1.555700E+01,-2.025641E+01
+1.556500E+01,-2.128205E+01
+1.557300E+01,-1.746154E+01
+1.558100E+01,-8.346154E+00
+1.558900E+01,+1.384615E+00
+1.559700E+01,+8.615385E+00
+1.560500E+01,+1.055128E+01
+1.561300E+01,+1.052564E+01
+1.562100E+01,+1.174359E+01
+1.562900E+01,+1.535897E+01
+1.563700E+01,+2.338462E+01
+1.564500E+01,+3.332051E+01
+1.565300E+01,+4.300000E+01
+1.566100E+01,+5.073077E+01
+1.566900E+01,+5.725641E+01
+1.567700E+01,+6.839744E+01
+1.568500E+01,+8.414103E+01
+1.569300E+01,+9.920513E+01
+1.570100E+01,+1.064359E+02
+1.570900E+01,+1.055513E+02
+1.571700E+01,+1.016923E+02
+1.572500E+01,+9.612821E+01
+1.573300E+01,+8.706410E+01
+1.574100E+01,+7.155128E+01
+1.574900E+01,+5.233333E+01
+1.575700E+01,+3.232051E+01
+1.576500E+01,+1.215385E+01
+1.577300E+01,-7.089744E+00
+1.578100E+01,-2.516667E+01
+1.578900E+01,-3.610256E+01
+1.579700E+01,-3.630769E+01
+1.580500E+01,-3.075641E+01
+1.581300E+01,-2.643590E+01
+1.582100E+01,-3.035897E+01
+1.582900E+01,-4.037179E+01
+1.583700E+01,-5.030769E+01
+1.584500E+01,-5.655128E+01
+1.585300E+01,-5.558974E+01
+1.586100E+01,-5.025641E+01
+1.586900E+01,-4.425641E+01
+1.587700E+01,-3.821795E+01
+1.588500E+01,-3.269231E+01
+1.589300E+01,-2.721795E+01
+1.590100E+01,-2.571795E+01
+1.590900E+01,-2.862821E+01
+1.591700E+01,-2.983333E+01
+1.592500E+01,-2.812821E+01
+1.593300E+01,-2.552564E+01
+1.594100E+01,-2.614103E+01
+1.594900E+01,-3.052564E+01
+1.595700E+01,-3.391026E+01
+1.596500E+01,-3.556410E+01
+1.597300E+01,-3.319231E+01
+1.598100E+01,-2.587179E+01
+1.598900E+01,-1.948718E+01
+1.599700E+01,-1.947436E+01
+1.600500E+01,-2.802564E+01
+1.601300E+01,-3.701282E+01
+1.602100E+01,-3.903846E+01
+1.602900E+01,-3.735897E+01
+1.603700E+01,-3.238462E+01
+1.604500E+01,-2.773077E+01
+1.604500E+01,-2.289744E+01
+1.605300E+01,-1.850000E+01
+1.606100E+01,-1.950000E+01
+1.606900E+01,-2.555128E+01
+1.607700E+01,-3.351282E+01
+1.608500E+01,-3.443590E+01
+1.609300E+01,-2.448718E+01
+1.610100E+01,-1.211538E+01
+1.610900E+01,-4.589744E+00
+1.611700E+01,-3.217949E+00
+1.612500E+01,-3.205128E+00
+1.613300E+01,+1.358974E+00
+1.614100E+01,+8.205128E+00
+1.614900E+01,+1.300000E+01
+1.615700E+01,+1.025641E+01
+1.616500E+01,-3.884615E+00
+1.617300E+01,-2.167949E+01
+1.618100E+01,-3.255128E+01
+1.618900E+01,-3.182051E+01
+1.619700E+01,-2.706410E+01
+1.620500E+01,-3.105128E+01
+1.621300E+01,-4.088462E+01
+1.622100E+01,-4.496154E+01
+1.622900E+01,-3.893590E+01
+1.623700E+01,-3.398718E+01
+1.624500E+01,-4.739744E+01
+1.625300E+01,-6.794872E+01
+1.626100E+01,-5.126923E+01
+1.626900E+01,+4.058974E+01
+1.627700E+01,+1.835256E+02
+1.628500E+01,+2.822564E+02
+1.629300E+01,+2.563333E+02
+1.630100E+01,+1.217051E+02
+1.630900E+01,-2.406410E+01
+1.631700E+01,-9.553846E+01
+1.632500E+01,-9.137179E+01
+1.633300E+01,-6.084615E+01
+1.634100E+01,-4.134615E+01
+1.634900E+01,-3.708974E+01
+1.635700E+01,-3.439744E+01
+1.636500E+01,-2.937179E+01
+1.637300E+01,-2.243590E+01
+1.638100E+01,-1.656410E+01
+1.638900E+01,-1.405128E+01
+1.639700E+01,-1.392308E+01
+1.640500E+01,-1.610256E+01
+1.641300E+01,-1.629487E+01
+1.642100E+01,-1.152564E+01
+1.642900E+01,-4.230769E-01
+1.643700E+01,+1.176923E+01
+1.644500E+01,+1.908974E+01
+1.645300E+01,+2.285897E+01
+1.645300E+01,+2.371795E+01
+1.646100E+01,+2.721795E+01
+1.646900E+01,+3.185897E+01
+1.647700E+01,+4.091026E+01
+1.648500E+01,+5.142308E+01
+1.649300E+01,+6.452564E+01
+1.650100E+01,+7.829487E+01
+1.650900E+01,+9.179487E+01
+1.651700E+01,+1.046410E+02
+1.652500E+01,+1.138718E+02
+1.653300E+01,+1.179231E+02
+1.654100E+01,+1.142436E+02
+1.654900E+01,+1.052821E+02
+1.655700E+01,+9.583333E+01
+1.656500E+01,+8.479487E+01
+1.657300E+01,+7.048718E+01
+1.658100E+01,+5.097436E+01
+1.658900E+01,+2.787179E+01
+1.659700E+01,+6.666667E+00
+1.660500E+01,-1.074359E+01
+1.661300E+01,-2.264103E+01
+1.662100E+01,-2.988462E+01
+1.662900E+01,-3.366667E+01
+1.663700E+01,-3.369231E+01
+1.664500E+01,-3.420513E+01
+1.665300E+01,-3.650000E+01
+1.666100E+01,-3.848718E+01
+1.666900E+01,-4.017949E+01
+1.667700E+01,-4.300000E+01
+1.668500E+01,-4.976923E+01
+1.669300E+01,-5.483333E+01
+1.670100E+01,-4.707692E+01
+1.670900E+01,-3.723077E+01
+1.671700E+01,-2.920513E+01
+1.672500E+01,-3.156410E+01
+1.673300E+01,-3.176923E+01
+1.674100E+01,-3.153846E+01
+1.674900E+01,-3.210256E+01
+1.675700E+01,-3.406410E+01
+1.676500E+01,-3.525641E+01
+1.677300E+01,-3.205128E+01
+1.678100E+01,-2.769231E+01
+1.678900E+01,-2.489744E+01
+1.679700E+01,-2.600000E+01
+1.680500E+01,-3.042308E+01
+1.681300E+01,-3.223077E+01
+1.682100E+01,-3.015385E+01
+1.682900E+01,-2.543590E+01
+1.683700E+01,-2.271795E+01
+1.684500E+01,-2.479487E+01
+1.685300E+01,-2.601282E+01
+1.686100E+01,-2.457692E+01
+1.686900E+01,-2.251282E+01
+1.687700E+01,-2.273077E+01
+1.688500E+01,-2.697436E+01
+1.689300E+01,-3.007692E+01
+1.690100E+01,-2.957692E+01
+1.690900E+01,-2.532051E+01
+1.691700E+01,-1.970513E+01
+1.692500E+01,-1.957692E+01
+1.693300E+01,-2.347436E+01
+1.694100E+01,-2.628205E+01
+1.694900E+01,-2.506410E+01
+1.695700E+01,-2.214103E+01
+1.696500E+01,-2.383333E+01
+1.697300E+01,-2.591026E+01
+1.698100E+01,-2.352564E+01
+1.698900E+01,-1.939744E+01
+1.699700E+01,-1.752564E+01
+1.700500E+01,-2.096154E+01
+1.701300E+01,-2.365385E+01
+1.702100E+01,-2.088462E+01
+1.702900E+01,-1.480769E+01
+1.703700E+01,-1.193590E+01
+1.704500E+01,-1.485897E+01
+1.705300E+01,-1.488462E+01
+1.706100E+01,-6.064103E+00
+1.706900E+01,+8.410256E+00
+1.707700E+01,+1.919231E+01
+1.708500E+01,+2.319231E+01
+1.709300E+01,+2.355128E+01
+1.710100E+01,+1.970513E+01
+1.710900E+01,+1.153846E+01
+1.711700E+01,-6.153846E-01
+1.712500E+01,-1.291026E+01
+1.713300E+01,-2.014103E+01
+1.714100E+01,-2.521795E+01
+1.714900E+01,-2.939744E+01
+1.715700E+01,-3.258974E+01
+1.716500E+01,-3.469231E+01
+1.717300E+01,-3.238462E+01
+1.718100E+01,-2.657692E+01
+1.718900E+01,-2.082051E+01
+1.719700E+01,-2.411538E+01
+1.720500E+01,-4.170513E+01
+1.721300E+01,-4.824359E+01
+1.722100E+01,+9.871795E-01
+1.722900E+01,+1.219615E+02
+1.723700E+01,+2.548462E+02
+1.724500E+01,+2.960769E+02
+1.725300E+01,+2.066282E+02
+1.726100E+01,+5.250000E+01
+1.726900E+01,-6.208974E+01
+1.727700E+01,-9.156410E+01
+1.728500E+01,-6.992308E+01
+1.729300E+01,-4.405128E+01
+1.730100E+01,-3.360256E+01
+1.730900E+01,-3.383333E+01
+1.731700E+01,-3.396154E+01
+1.732500E+01,-3.141026E+01
+1.733300E+01,-2.428205E+01
+1.734100E+01,-1.515385E+01
+1.734900E+01,-8.910256E+00
+1.735700E+01,-5.179487E+00
+1.736500E+01,-5.628205E+00
+1.737300E+01,-4.935897E+00
+1.738100E+01,-5.000000E-01
+1.738900E+01,+7.269231E+00
+1.739700E+01,+1.321795E+01
+1.740500E+01,+1.526923E+01
+1.741300E+01,+2.002564E+01
+1.741300E+01,+2.494872E+01
+1.742100E+01,+3.384615E+01
+1.742900E+01,+3.955128E+01
+1.743700E+01,+4.694872E+01
+1.744500E+01,+5.293590E+01
+1.745300E+01,+6.370513E+01
+1.746100E+01,+7.712821E+01
+1.746900E+01,+8.876923E+01
+1.747700E+01,+9.628205E+01
+1.748500E+01,+1.032308E+02
+1.749300E+01,+1.128462E+02
+1.750100E+01,+1.174615E+02
+1.750900E+01,+1.121026E+02
+1.751700E+01,+1.008462E+02
+1.752500E+01,+9.029487E+01
+1.753300E+01,+8.169231E+01
+1.754100E+01,+6.598718E+01
+1.754900E+01,+4.056410E+01
+1.755700E+01,+1.385897E+01
+1.756500E+01,-6.717949E+00
+1.757300E+01,-1.855128E+01
+1.758100E+01,-2.544872E+01
+1.758900E+01,-2.955128E+01
+1.759700E+01,-3.216667E+01
+1.760500E+01,-3.810256E+01
+1.761300E+01,-4.535897E+01
+1.762100E+01,-4.917949E+01
+1.762900E+01,-4.729487E+01
+1.763700E+01,-4.155128E+01
+1.764500E+01,-3.878205E+01
+1.765300E+01,-3.924359E+01
+1.766100E+01,-4.061538E+01
+1.766900E+01,-4.092308E+01
+1.767700E+01,-3.800000E+01
+1.768500E+01,-3.562821E+01
+1.769300E+01,-3.546154E+01
+1.770100E+01,-3.710256E+01
+1.770900E+01,-3.751282E+01
+1.771700E+01,-3.433333E+01
+1.772500E+01,-3.169231E+01
+1.773300E+01,-3.050000E+01
+1.774100E+01,-3.158974E+01
+1.774900E+01,-3.121795E+01
+1.775700E+01,-2.830769E+01
+1.776500E+01,-2.355128E+01
+1.777300E+01,-1.975641E+01
+1.778100E+01,-2.205128E+01
+1.778900E+01,-2.784615E+01
+1.779700E+01,-3.242308E+01
+1.780500E+01,-3.265385E+01
+1.781300E+01,-2.846154E+01
+1.782100E+01,-2.667949E+01
+1.782900E+01,-2.967949E+01
+1.783700E+01,-3.553846E+01
+1.784500E+01,-3.992308E+01
+1.785300E+01,-3.826923E+01
+1.786100E+01,-3.469231E+01
+1.786900E+01,-3.175641E+01
+1.787700E+01,-2.839744E+01
+1.788500E+01,-2.425641E+01
+1.789300E+01,-1.920513E+01
+1.790100E+01,-1.775641E+01
+1.790900E+01,-1.965385E+01
+1.791700E+01,-2.070513E+01
+1.792500E+01,-2.219231E+01
+1.793300E+01,-2.492308E+01
+1.794100E+01,-2.910256E+01
+1.794900E+01,-3.119231E+01
+1.795700E+01,-2.869231E+01
+1.796500E+01,-2.638462E+01
+1.797300E+01,-2.443590E+01
+1.798100E+01,-2.167949E+01
+1.798900E+01,-1.883333E+01
+1.799700E+01,-1.665385E+01
+1.800500E+01,-1.760256E+01
+1.801300E+01,-1.802564E+01
+1.802100E+01,-1.607692E+01
+1.802900E+01,-1.497436E+01
+1.803700E+01,-1.414103E+01
+1.804500E+01,-1.479487E+01
+1.805300E+01,-1.107692E+01
+1.806100E+01,-7.461538E+00
+1.806900E+01,-5.858974E+00
+1.807700E+01,-6.858974E+00
+1.808500E+01,-4.064103E+00
+1.809300E+01,+8.282051E+00
+1.810100E+01,+2.362821E+01
+1.810900E+01,+3.221795E+01
+1.811700E+01,+2.658974E+01
+1.812500E+01,+1.184615E+01
+1.813300E+01,-9.358974E-01
+1.814100E+01,-9.371795E+00
+1.814900E+01,-1.439744E+01
+1.815700E+01,-2.041026E+01
+1.816500E+01,-2.814103E+01
+1.817300E+01,-3.374359E+01
+1.818100E+01,-3.747436E+01
+1.818900E+01,-3.770513E+01
+1.819700E+01,-3.297436E+01
+1.820500E+01,-2.588462E+01
+1.821300E+01,-2.461538E+01
+1.822100E+01,-4.117949E+01
+1.822900E+01,-6.435897E+01
+1.823700E+01,-5.033333E+01
+1.824500E+01,+4.044872E+01
+1.825300E+01,+1.867179E+02
+1.826100E+01,+2.923462E+02
+1.826900E+01,+2.707308E+02
+1.827700E+01,+1.357308E+02
+1.828500E+01,-1.211538E+01
+1.829300E+01,-8.237179E+01
+1.830100E+01,-7.387179E+01
+1.830900E+01,-4.426923E+01
+1.831700E+01,-3.355128E+01
+1.832500E+01,-4.028205E+01
+1.833300E+01,-4.330769E+01
+1.834100E+01,-3.596154E+01
+1.834900E+01,-2.578205E+01
+1.835700E+01,-1.773077E+01
+1.836500E+01,-1.525641E+01
+1.837300E+01,-1.298718E+01
+1.838100E+01,-1.079487E+01
+1.838900E+01,-7.012821E+00
+1.839700E+01,-4.205128E+00
+1.840500E+01,-3.217949E+00
+1.841300E+01,-2.141026E+00
+1.842100E+01,+9.871795E-01
+1.842900E+01,+1.030769E+01
+1.843700E+01,+2.275641E+01
+1.844500E+01,+3.383333E+01
+1.845300E+01,+4.230769E+01
+1.846100E+01,+4.924359E+01
+1.846900E+01,+6.110256E+01
+1.847700E+01,+7.734615E+01
+1.848500E+01,+9.151282E+01
+1.849300E+01,+1.006154E+02
+1.850100E+01,+1.058718E+02
+1.850900E+01,+1.132949E+02
+1.851700E+01,+1.202821E+02
+1.852500E+01,+1.190513E+02
+1.853300E+01,+1.092308E+02
+1.854100E+01,+9.411538E+01
+1.854900E+01,+7.884615E+01
+1.855700E+01,+6.289744E+01
+1.856500E+01,+4.379487E+01
+1.857300E+01,+2.497436E+01
+1.858100E+01,+6.910256E+00
+1.858900E+01,-9.474359E+00
+1.859700E+01,-2.178205E+01
+1.860500E+01,-2.908974E+01
+1.861300E+01,-3.167949E+01
+1.862100E+01,-3.593590E+01
+1.862900E+01,-4.352564E+01
+1.863700E+01,-4.897436E+01
+1.864500E+01,-4.978205E+01
+1.865300E+01,-4.661538E+01
+1.866100E+01,-4.479487E+01
+1.866900E+01,-4.656410E+01
+1.867700E+01,-4.794872E+01
+1.868500E+01,-4.828205E+01
+1.869300E+01,-4.626923E+01
+1.870100E+01,-4.220513E+01
+1.870900E+01,-3.719231E+01
+1.871700E+01,-3.283333E+01
+1.872500E+01,-3.284615E+01
+1.873300E+01,-3.314103E+01
+1.874100E+01,-3.315385E+01
+1.874900E+01,-3.194872E+01
+1.875700E+01,-3.298718E+01
+1.876500E+01,-3.502564E+01
+1.877300E+01,-3.414103E+01
+1.878100E+01,-3.103846E+01
+1.878900E+01,-2.826923E+01
+1.879700E+01,-3.060256E+01
+1.880500E+01,-3.639744E+01
+1.881300E+01,-3.914103E+01
+1.882100E+01,-3.773077E+01
+1.882900E+01,-3.375641E+01
+1.883700E+01,-3.251282E+01
+1.884500E+01,-3.480769E+01
+1.885300E+01,-3.539744E+01
+1.886100E+01,-3.321795E+01
+1.886900E+01,-2.942308E+01
+1.887700E+01,-2.841026E+01
+1.888500E+01,-3.150000E+01
+1.889300E+01,-3.310256E+01
+1.890100E+01,-3.187179E+01
+1.890900E+01,-2.841026E+01
+1.891700E+01,-2.578205E+01
+1.892500E+01,-2.614103E+01
+1.893300E+01,-2.642308E+01
+1.894100E+01,-2.638462E+01
+1.894900E+01,-2.526923E+01
+1.895700E+01,-2.297436E+01
+1.896500E+01,-2.207692E+01
+1.897300E+01,-2.228205E+01
+1.898100E+01,-2.430769E+01
+1.898900E+01,-2.650000E+01
+1.899700E+01,-2.578205E+01
+1.900500E+01,-2.439744E+01
+1.901300E+01,-2.348718E+01
+1.902100E+01,-2.482051E+01
+1.902900E+01,-2.776923E+01
+1.903700E+01,-2.679487E+01
+1.904500E+01,-2.343590E+01
+1.905300E+01,-1.617949E+01
+1.906100E+01,-1.155128E+01
+1.906900E+01,-8.487179E+00
+1.907700E+01,-8.487179E+00
+1.908500E+01,-9.794872E+00
+1.909300E+01,-9.025641E+00
+1.910100E+01,-3.512821E+00
+1.910900E+01,+9.807692E+00
+1.911700E+01,+2.558974E+01
+1.912500E+01,+3.580769E+01
+1.913300E+01,+3.501282E+01
+1.914100E+01,+2.228205E+01
+1.914900E+01,+5.192308E+00
+1.915700E+01,-1.012821E+01
+1.916500E+01,-1.984615E+01
+1.917300E+01,-2.319231E+01
+1.918100E+01,-2.446154E+01
+1.918900E+01,-2.480769E+01
+1.919700E+01,-2.603846E+01
+1.920500E+01,-2.775641E+01
+1.921300E+01,-2.588462E+01
+1.922100E+01,-2.289744E+01
+1.922900E+01,-2.588462E+01
+1.923700E+01,-4.202564E+01
+1.924500E+01,-5.467949E+01
+1.925300E+01,-1.623077E+01
+1.926100E+01,+9.848718E+01
+1.926900E+01,+2.402051E+02
+1.927700E+01,+3.035000E+02
+1.928500E+01,+2.281538E+02
+1.929300E+01,+7.052564E+01
+1.930100E+01,-5.930769E+01
+1.930900E+01,-1.018077E+02
+1.931700E+01,-8.201282E+01
+1.932500E+01,-5.358974E+01
+1.933300E+01,-3.835897E+01
+1.934100E+01,-3.274359E+01
+1.934900E+01,-3.025641E+01
+1.935700E+01,-2.832051E+01
+1.936500E+01,-2.612821E+01
+1.937300E+01,-2.073077E+01
+1.938100E+01,-1.633333E+01
+1.938900E+01,-1.278205E+01
+1.939700E+01,-9.256410E+00
+1.940500E+01,-2.653846E+00
+1.941300E+01,+6.576923E+00
+1.942100E+01,+1.225641E+01
+1.942900E+01,+1.237179E+01
+1.943700E+01,+8.923077E+00
+1.944500E+01,+9.756410E+00
+1.945300E+01,+1.866667E+01
+1.946100E+01,+3.085897E+01
+1.946900E+01,+4.370513E+01
+1.947700E+01,+5.550000E+01
+1.948500E+01,+6.789744E+01
+1.949300E+01,+8.182051E+01
+1.950100E+01,+9.308974E+01
+1.950900E+01,+1.012179E+02
+1.951700E+01,+1.063974E+02
+1.952500E+01,+1.104744E+02
+1.953300E+01,+1.150513E+02
+1.954100E+01,+1.164231E+02
+1.954900E+01,+1.129231E+02
+1.955700E+01,+1.030897E+02
+1.956500E+01,+8.537179E+01
+1.957300E+01,+6.189744E+01
+1.958100E+01,+3.602564E+01
+1.958900E+01,+1.584615E+01
+1.959700E+01,+4.320513E+00
+1.960500E+01,-5.115385E+00
+1.961300E+01,-1.675641E+01
+1.962100E+01,-3.092308E+01
+1.962900E+01,-4.339744E+01
+1.963700E+01,-5.146154E+01
+1.964500E+01,-5.598718E+01
+1.965300E+01,-5.373077E+01
+1.966100E+01,-4.648718E+01
+1.966900E+01,-4.043590E+01
+1.967700E+01,-3.997436E+01
+1.968500E+01,-4.573077E+01
+1.969300E+01,-5.019231E+01
+1.970100E+01,-5.003846E+01
+1.970900E+01,-4.669231E+01
+1.971700E+01,-4.291026E+01
+1.972500E+01,-4.043590E+01
+1.973300E+01,-3.769231E+01
+1.974100E+01,-3.742308E+01
+1.974900E+01,-3.687179E+01
+1.975700E+01,-3.393590E+01
+1.976500E+01,-2.864103E+01
+1.977300E+01,-2.702564E+01
+1.978100E+01,-3.344872E+01
+1.978900E+01,-4.016667E+01
+1.979700E+01,-4.075641E+01
+1.980500E+01,-3.597436E+01
+1.981300E+01,-3.173077E+01
+1.982100E+01,-3.270513E+01
+1.982900E+01,-3.542308E+01
+1.983700E+01,-3.828205E+01
+1.984500E+01,-3.988462E+01
+1.985300E+01,-3.782051E+01
+1.986100E+01,-3.434615E+01
+1.986900E+01,-3.025641E+01
+1.987700E+01,-2.647436E+01
+1.988500E+01,-2.292308E+01
+1.989300E+01,-1.973077E+01
+1.990100E+01,-2.234615E+01
+1.990900E+01,-2.984615E+01
+1.991700E+01,-3.725641E+01
+1.992500E+01,-4.038462E+01
+1.993300E+01,-3.819231E+01
+1.994100E+01,-3.582051E+01
+1.994900E+01,-3.339744E+01
+1.995700E+01,-2.797436E+01
+1.996500E+01,-1.966667E+01
+1.997300E+01,-1.085897E+01
+1.998100E+01,-9.166667E+00
+1.998900E+01,-1.666667E+01
+1.999700E+01,-2.782051E+01
+2.000500E+01,-3.605128E+01
+2.001300E+01,-3.573077E+01
+2.002100E+01,-3.017949E+01
+2.002900E+01,-2.378205E+01
+2.003700E+01,-1.858974E+01
+2.004500E+01,-1.721795E+01
+2.005300E+01,-1.458974E+01
+2.006100E+01,-9.730769E+00
+2.006900E+01,+1.910256E+00
+2.007700E+01,+1.387179E+01
+2.008500E+01,+2.132051E+01
+2.009300E+01,+2.361538E+01
+2.010100E+01,+2.288462E+01
+2.010900E+01,+1.957692E+01
+2.011700E+01,+7.935897E+00
+2.012500E+01,-1.023077E+01
+2.013300E+01,-2.562821E+01
+2.014100E+01,-3.191026E+01
+2.014900E+01,-3.010256E+01
+2.015700E+01,-2.976923E+01
+2.016500E+01,-3.339744E+01
+2.017300E+01,-3.544872E+01
+2.018100E+01,-3.283333E+01
+2.018900E+01,-2.765385E+01
+2.019700E+01,-3.128205E+01
+2.020500E+01,-4.771795E+01
+2.021300E+01,-5.264103E+01
+2.022100E+01,-1.961538E+00
+2.022900E+01,+1.202692E+02
+2.023700E+01,+2.494359E+02
+2.024500E+01,+2.817821E+02
+2.025300E+01,+1.824615E+02
+2.026100E+01,+2.515385E+01
+2.026900E+01,-8.112821E+01
+2.027700E+01,-9.900000E+01
+2.028500E+01,-7.087179E+01
+2.029300E+01,-4.408974E+01
+2.030100E+01,-3.228205E+01
+2.030900E+01,-2.660256E+01
+2.031700E+01,-2.194872E+01
+2.032500E+01,-1.916667E+01
+2.033300E+01,-1.429487E+01
+2.034100E+01,-7.884615E+00
+2.034900E+01,-3.192308E+00
+2.035700E+01,-1.487179E+00
+2.036500E+01,-3.423077E+00
+2.037300E+01,-2.423077E+00
+2.038100E+01,+4.871795E-01
+2.038900E+01,+7.153846E+00
+2.039700E+01,+1.265385E+01
+2.040500E+01,+1.789744E+01
+2.041300E+01,+2.403846E+01
+2.042100E+01,+3.338462E+01
+2.042900E+01,+4.826923E+01
+2.043700E+01,+6.311538E+01
+2.044500E+01,+7.421795E+01
+2.045300E+01,+8.156410E+01
+2.046100E+01,+8.976923E+01
+2.046900E+01,+1.034872E+02
+2.047700E+01,+1.166795E+02
+2.048500E+01,+1.229872E+02
+2.049300E+01,+1.229744E+02
+2.050100E+01,+1.210256E+02
+2.050900E+01,+1.198846E+02
+2.051700E+01,+1.131538E+02
+2.052500E+01,+9.720513E+01
+2.053300E+01,+7.538462E+01
+2.054100E+01,+5.074359E+01
+2.054100E+01,+3.471795E+01
+2.054900E+01,+1.838462E+01
+2.055700E+01,+4.987179E+00
+2.056500E+01,-1.291026E+01
+2.057300E+01,-2.382051E+01
+2.058100E+01,-3.221795E+01
+2.058900E+01,-4.034615E+01
+2.059700E+01,-4.879487E+01
+2.060500E+01,-5.420513E+01
+2.061300E+01,-5.284615E+01
+2.062100E+01,-4.988462E+01
+2.062900E+01,-4.783333E+01
+2.063700E+01,-4.635897E+01
+2.064500E+01,-4.429487E+01
+2.065300E+01,-4.100000E+01
+2.066100E+01,-4.115385E+01
+2.066900E+01,-4.330769E+01
+2.067700E+01,-4.332051E+01
+2.068500E+01,-4.094872E+01
+2.069300E+01,-3.775641E+01
+2.070100E+01,-3.519231E+01
+2.070900E+01,-2.952564E+01
+2.071700E+01,-2.455128E+01
+2.072500E+01,-2.475641E+01
+2.073300E+01,-3.216667E+01
+2.074100E+01,-3.989744E+01
+2.074900E+01,-3.980769E+01
+2.075700E+01,-3.464103E+01
+2.076500E+01,-3.111538E+01
+2.077300E+01,-3.406410E+01
+2.078100E+01,-3.951282E+01
+2.078900E+01,-3.987179E+01
+2.079700E+01,-3.782051E+01
+2.080500E+01,-3.711538E+01
+2.081300E+01,-3.832051E+01
+2.082100E+01,-3.879487E+01
+2.082900E+01,-3.541026E+01
+2.083700E+01,-3.262821E+01
+2.084500E+01,-3.211538E+01
+2.085300E+01,-3.158974E+01
+2.086100E+01,-3.135897E+01
+2.086900E+01,-3.111538E+01
+2.087700E+01,-3.208974E+01
+2.088500E+01,-3.019231E+01
+2.089300E+01,-2.117949E+01
+2.090100E+01,-9.294872E+00
+2.090100E+01,+1.410256E-01
+2.090900E+01,+5.602564E+00
+2.091700E+01,+8.692308E+00
+2.092500E+01,+9.179487E+00
+2.093300E+01,+5.448718E+00
+2.094100E+01,-1.858974E+00
+2.094900E+01,-8.166667E+00
+2.095700E+01,-1.465385E+01
+2.096500E+01,-2.569231E+01
+2.097300E+01,-3.823077E+01
+2.098100E+01,-4.565385E+01
+2.098900E+01,-4.261538E+01
+2.099700E+01,-3.493590E+01
+2.100500E+01,-3.187179E+01
+2.101300E+01,-3.182051E+01
+2.102100E+01,-3.287179E+01
+2.102900E+01,-4.432051E+01
+2.103700E+01,-3.466667E+01
+2.104500E+01,+2.764103E+01
+2.105300E+01,+1.446410E+02
+2.106100E+01,+2.275256E+02
+2.106900E+01,+2.018077E+02
+2.107700E+01,+7.951282E+01
+2.108500E+01,-4.919231E+01
+2.109300E+01,-1.118077E+02
+2.110100E+01,-1.067564E+02
+2.110900E+01,-7.348718E+01
+2.111700E+01,-4.600000E+01
+2.112500E+01,-3.126923E+01
+2.113300E+01,-2.476923E+01
+2.114100E+01,-2.184615E+01
+2.114900E+01,-1.842308E+01
+2.115700E+01,-1.655128E+01
+2.116500E+01,-1.656410E+01
+2.117300E+01,-1.539744E+01
+2.118100E+01,-1.167949E+01
+2.118900E+01,-4.256410E+00
+2.119700E+01,+3.192308E+00
+2.120500E+01,+7.653846E+00
+2.121300E+01,+9.423077E+00
+2.122100E+01,+1.057692E+01
+2.122900E+01,+1.647436E+01
+2.123700E+01,+2.608974E+01
+2.124500E+01,+3.587179E+01
+2.125300E+01,+4.637179E+01
+2.126100E+01,+5.738462E+01
+2.126900E+01,+6.965385E+01
+2.127700E+01,+8.017949E+01
+2.128500E+01,+8.839744E+01
+2.129300E+01,+9.912821E+01
+2.130100E+01,+1.111154E+02
+2.130900E+01,+1.206154E+02
+2.131700E+01,+1.234615E+02
+2.132500E+01,+1.196026E+02
+2.133300E+01,+1.144359E+02
+2.134100E+01,+1.075513E+02
+2.134900E+01,+9.715385E+01
+2.135700E+01,+8.129487E+01
+2.136500E+01,+5.291026E+01
+2.137300E+01,+2.548718E+01
+2.138100E+01,-5.128205E-01
+2.138900E+01,-1.446154E+01
+2.139700E+01,-2.638462E+01
+2.140500E+01,-3.498718E+01
+2.141300E+01,-4.325641E+01
+2.142100E+01,-5.347436E+01
+2.142900E+01,-6.280769E+01
+2.143700E+01,-6.811538E+01
+2.144500E+01,-6.644872E+01
+2.145300E+01,-6.165385E+01
+2.146100E+01,-5.798718E+01
+2.146900E+01,-5.315385E+01
+2.147700E+01,-4.652564E+01
+2.148500E+01,-3.888462E+01
+2.149300E+01,-3.469231E+01
+2.150100E+01,-3.661538E+01
+2.150900E+01,-3.952564E+01
+2.151700E+01,-3.998718E+01
+2.152500E+01,-3.571795E+01
+2.153300E+01,-2.830769E+01
+2.154100E+01,-2.316667E+01
+2.154900E+01,-2.307692E+01
+2.155700E+01,-2.905128E+01
+2.156500E+01,-3.611538E+01
+2.157300E+01,-3.933333E+01
+2.158100E+01,-4.012821E+01
+2.158900E+01,-3.900000E+01
+2.159700E+01,-3.691026E+01
+2.160500E+01,-3.394872E+01
+2.161300E+01,-2.917949E+01
+2.162100E+01,-2.564103E+01
+2.162900E+01,-2.423077E+01
+2.163700E+01,-2.606410E+01
+2.164500E+01,-3.021795E+01
+2.165300E+01,-3.048718E+01
+2.166100E+01,-2.641026E+01
+2.166900E+01,-2.033333E+01
+2.167700E+01,-1.543590E+01
+2.168500E+01,-1.167949E+01
+2.169300E+01,-4.102564E+00
+2.170100E+01,+3.602564E+00
+2.170900E+01,+7.384615E+00
+2.171700E+01,+2.602564E+00
+2.172500E+01,-6.743590E+00
+2.173300E+01,-1.757692E+01
+2.174100E+01,-2.753846E+01
+2.174900E+01,-3.269231E+01
+2.175700E+01,-3.360256E+01
+2.176500E+01,-3.270513E+01
+2.177300E+01,-3.482051E+01
+2.178100E+01,-3.784615E+01
+2.178900E+01,-3.661538E+01
+2.179700E+01,-3.853846E+01
+2.180500E+01,-5.226923E+01
+2.181300E+01,-6.406410E+01
+2.182100E+01,-3.047436E+01
+2.182900E+01,+7.598718E+01
+2.183700E+01,+2.051538E+02
+2.184500E+01,+2.597051E+02
+2.185300E+01,+1.905385E+02
+2.186100E+01,+5.021795E+01
+2.186900E+01,-6.124359E+01
+2.187700E+01,-9.656410E+01
+2.188500E+01,-7.921795E+01
+2.189300E+01,-5.317949E+01
+2.190100E+01,-3.994872E+01
+2.190900E+01,-3.494872E+01
+2.191700E+01,-3.270513E+01
+2.192500E+01,-3.091026E+01
+2.193300E+01,-2.838462E+01
+2.194100E+01,-2.646154E+01
+2.194900E+01,-2.292308E+01
+2.195700E+01,-1.737179E+01
+2.196500E+01,-1.141026E+01
+2.197300E+01,-6.179487E+00
+2.198100E+01,-3.448718E+00
+2.198900E+01,-7.564103E-01
+2.199700E+01,+1.794872E+00
+2.200500E+01,+3.500000E+00
+2.201300E+01,+7.769231E+00
+2.202100E+01,+1.525641E+01
+2.202900E+01,+3.043590E+01
+2.203700E+01,+4.508974E+01
+2.204500E+01,+5.832051E+01
+2.205300E+01,+6.802564E+01
+2.206100E+01,+7.855128E+01
+2.206900E+01,+9.052564E+01
+2.207700E+01,+1.010128E+02
+2.208500E+01,+1.093205E+02
+2.209300E+01,+1.135641E+02
+2.210100E+01,+1.130256E+02
+2.210900E+01,+1.076923E+02
+2.211700E+01,+9.476923E+01
+2.212500E+01,+7.662821E+01
+2.213300E+01,+5.821795E+01
+2.214100E+01,+4.324359E+01
+2.214900E+01,+3.121795E+01
+2.215700E+01,+1.466667E+01
+2.216500E+01,-6.269231E+00
+2.217300E+01,-2.480769E+01
+2.218100E+01,-3.641026E+01
+2.218900E+01,-4.060256E+01
+2.219700E+01,-4.329487E+01
+2.220500E+01,-4.534615E+01
+2.221300E+01,-4.670513E+01
+2.222100E+01,-5.093590E+01
+2.222900E+01,-5.591026E+01
+2.223700E+01,-5.817949E+01
+2.224500E+01,-5.417949E+01
+2.225300E+01,-4.684615E+01
+2.226100E+01,-4.444872E+01
+2.226900E+01,-4.446154E+01
+2.227700E+01,-4.221795E+01
+2.228500E+01,-3.652564E+01
+2.229300E+01,-3.091026E+01
+2.230100E+01,-2.943590E+01
+2.230900E+01,-2.735897E+01
+2.231700E+01,-2.407692E+01
+2.232500E+01,-2.428205E+01
+2.233300E+01,-2.929487E+01
+2.234100E+01,-3.684615E+01
+2.234900E+01,-3.950000E+01
+2.235700E+01,-3.706410E+01
+2.236500E+01,-3.225641E+01
+2.237300E+01,-2.891026E+01
+2.238100E+01,-3.000000E+01
+2.238900E+01,-3.323077E+01
+2.239700E+01,-3.720513E+01
+2.240500E+01,-3.716667E+01
+2.241300E+01,-3.460256E+01
+2.242100E+01,-3.130769E+01
+2.242900E+01,-2.811538E+01
+2.243700E+01,-2.701282E+01
+2.244500E+01,-2.657692E+01
+2.245300E+01,-2.669231E+01
+2.246100E+01,-2.373077E+01
+2.246900E+01,-1.364103E+01
+2.247700E+01,+5.384615E-01
+2.248500E+01,+1.419231E+01
+2.249300E+01,+2.138462E+01
+2.250100E+01,+1.992308E+01
+2.250900E+01,+1.262821E+01
+2.251700E+01,+2.564103E-02
+2.252500E+01,-1.452564E+01
+2.253300E+01,-2.738462E+01
+2.254100E+01,-3.651282E+01
+2.254900E+01,-3.946154E+01
+2.255700E+01,-3.948718E+01
+2.256500E+01,-3.832051E+01
+2.257300E+01,-3.492308E+01
+2.258100E+01,-3.015385E+01
+2.258900E+01,-2.725641E+01
+2.259700E+01,-3.738462E+01
+2.260500E+01,-5.789744E+01
+2.261300E+01,-5.571795E+01
+2.262100E+01,+8.820513E+00
+2.262900E+01,+1.356410E+02
+2.263700E+01,+2.522179E+02
+2.264500E+01,+2.678974E+02
+2.265300E+01,+1.626282E+02
+2.266100E+01,+6.987179E+00
+2.266900E+01,-9.921795E+01
+2.267700E+01,-1.174487E+02
+2.268500E+01,-8.212821E+01
+2.269300E+01,-4.479487E+01
+2.270100E+01,-3.284615E+01
+2.270900E+01,-3.191026E+01
+2.271700E+01,-3.306410E+01
+2.272500E+01,-2.997436E+01
+2.273300E+01,-2.934615E+01
+2.274100E+01,-2.833333E+01
+2.274900E+01,-2.270513E+01
+2.275700E+01,-1.426923E+01
+2.276500E+01,-5.435897E+00
+2.277300E+01,-6.923077E-01
+2.278100E+01,+8.589744E-01
+2.278900E+01,+2.666667E+00
+2.279700E+01,+4.692308E+00
+2.280500E+01,+8.897436E+00
+2.281300E+01,+1.406410E+01
+2.282100E+01,+1.951282E+01
+2.282900E+01,+2.783333E+01
+2.283700E+01,+3.989744E+01
+2.284500E+01,+5.723077E+01
+2.285300E+01,+7.516667E+01
+2.286100E+01,+8.837179E+01
+2.286900E+01,+9.778205E+01
+2.287700E+01,+1.022436E+02
+2.288500E+01,+1.021282E+02
+2.289300E+01,+9.932051E+01
+2.290100E+01,+9.528205E+01
+2.290900E+01,+9.224359E+01
+2.291700E+01,+8.664103E+01
+2.292500E+01,+7.706410E+01
+2.293300E+01,+6.337179E+01
+2.294100E+01,+4.243590E+01
+2.294900E+01,+1.785897E+01
+2.295700E+01,-4.358974E+00
+2.296500E+01,-1.882051E+01
+2.297300E+01,-2.730769E+01
+2.298100E+01,-3.729487E+01
+2.298900E+01,-4.573077E+01
+2.299700E+01,-4.970513E+01
+2.300500E+01,-5.093590E+01
+2.301300E+01,-5.088462E+01
+2.302100E+01,-5.169231E+01
+2.302900E+01,-5.037179E+01
+2.303700E+01,-4.746154E+01
+2.304500E+01,-4.093590E+01
+2.305300E+01,-3.421795E+01
+2.306100E+01,-3.565385E+01
+2.306900E+01,-4.437179E+01
+2.307700E+01,-5.188462E+01
+2.308500E+01,-5.129487E+01
+2.309300E+01,-4.787179E+01
+2.310100E+01,-4.520513E+01
+2.310900E+01,-4.193590E+01
+2.311700E+01,-3.851282E+01
+2.312500E+01,-3.505128E+01
+2.313300E+01,-3.250000E+01
+2.314100E+01,-2.967949E+01
+2.314900E+01,-2.705128E+01
+2.315700E+01,-2.757692E+01
+2.316500E+01,-2.856410E+01
+2.317300E+01,-2.838462E+01
+2.318100E+01,-2.821795E+01
+2.318900E+01,-2.753846E+01
+2.319700E+01,-2.734615E+01
+2.320500E+01,-2.593590E+01
+2.321300E+01,-2.457692E+01
+2.322100E+01,-2.471795E+01
+2.322900E+01,-2.303846E+01
+2.323700E+01,-2.103846E+01
+2.324500E+01,-2.173077E+01
+2.325300E+01,-2.746154E+01
+2.326100E+01,-3.560256E+01
+2.326900E+01,-3.691026E+01
+2.327700E+01,-3.042308E+01
+2.328500E+01,-2.171795E+01
+2.328500E+01,-1.657692E+01
+2.329300E+01,-1.676923E+01
+2.330100E+01,-1.878205E+01
+2.330900E+01,-1.752564E+01
+2.331700E+01,-9.038462E+00
+2.332500E+01,+4.346154E+00
+2.333300E+01,+1.603846E+01
+2.334100E+01,+1.825641E+01
+2.334900E+01,+1.250000E+01
+2.335700E+01,+3.051282E+00
+2.336500E+01,-8.333333E+00
+2.337300E+01,-1.597436E+01
+2.338100E+01,-2.225641E+01
+2.338900E+01,-2.457692E+01
+2.339700E+01,-3.094872E+01
+2.340500E+01,-3.823077E+01
+2.341300E+01,-3.974359E+01
+2.342100E+01,-3.135897E+01
+2.342900E+01,-2.425641E+01
+2.343700E+01,-3.620513E+01
+2.344500E+01,-5.762821E+01
+2.345300E+01,-4.760256E+01
+2.346100E+01,+3.350000E+01
+2.346900E+01,+1.660128E+02
+2.347700E+01,+2.613718E+02
+2.348500E+01,+2.414231E+02
+2.349300E+01,+1.159231E+02
+2.350100E+01,-2.115385E+01
+2.350900E+01,-8.460256E+01
+2.351700E+01,-7.310256E+01
+2.352500E+01,-3.705128E+01
+2.353300E+01,-1.637179E+01
+2.353300E+01,-1.225641E+01
+2.354100E+01,-1.465385E+01
+2.354900E+01,-1.744872E+01
+2.355700E+01,-1.934615E+01
+2.356500E+01,-1.844872E+01
+2.357300E+01,-1.867949E+01
+2.358100E+01,-2.458974E+01
+2.358900E+01,-2.908974E+01
+2.359700E+01,-2.510256E+01
+2.360500E+01,-1.597436E+01
+2.361300E+01,-1.271795E+01
+2.362100E+01,-1.396154E+01
+2.362900E+01,-2.666667E+00
+2.363700E+01,+2.425641E+01
+2.364500E+01,+5.178205E+01
+2.365300E+01,+6.385897E+01
+2.366100E+01,+6.023077E+01
+2.366900E+01,+5.746154E+01
+2.367700E+01,+6.010256E+01
+2.368500E+01,+5.867949E+01
+2.369300E+01,+5.798718E+01
+2.370100E+01,+8.562821E+01
+2.370900E+01,+1.096410E+02
+2.371700E+01,+1.166667E+02
+2.372500E+01,+9.701282E+01
+2.373300E+01,+1.020769E+02
+2.374100E+01,+1.161154E+02
+2.374900E+01,+1.020385E+02
+2.375700E+01,+6.387179E+01
+2.376500E+01,+4.367949E+01
+2.377300E+01,+5.064103E+01
+2.378100E+01,+5.326923E+01
+2.378900E+01,+3.306410E+01
+2.379700E+01,+4.935897E+00
+2.380500E+01,-1.251282E+01
+2.381300E+01,-2.737179E+01
+2.382100E+01,-4.906410E+01
+2.382900E+01,-6.592308E+01
+2.383700E+01,-6.588462E+01
+2.384500E+01,-5.173077E+01
+2.385300E+01,-3.970513E+01
+2.386100E+01,-3.558974E+01
+2.386900E+01,-3.017949E+01
+2.387700E+01,-2.574359E+01
+2.388500E+01,-2.870513E+01
+2.389300E+01,-3.862821E+01
+2.390100E+01,-5.032051E+01
+2.390900E+01,-5.938462E+01
+2.391700E+01,-6.623077E+01
+2.392500E+01,-6.137179E+01
+2.393300E+01,-4.007692E+01
+2.394100E+01,-1.547436E+01
+2.394900E+01,-3.025641E+00
+2.395700E+01,-1.071795E+01
+2.396500E+01,-2.697436E+01
+2.397300E+01,-3.820513E+01
+2.398100E+01,-4.170513E+01
+2.398900E+01,-3.384615E+01
+2.399700E+01,-2.141026E+01
+2.400500E+01,-1.516667E+01
+2.401300E+01,-2.328205E+01
+2.402100E+01,-4.356410E+01
+2.402900E+01,-4.774359E+01
+2.403700E+01,-3.684615E+01
+2.404500E+01,-1.611538E+01
+2.405300E+01,-1.469231E+01
+2.406100E+01,-2.010256E+01
+2.406900E+01,-1.674359E+01
+2.407700E+01,-2.397436E+00
+2.408500E+01,+3.371795E+00
+2.409300E+01,-1.860256E+01
+2.410100E+01,-5.119231E+01
+2.410900E+01,-6.567949E+01
+2.411700E+01,-5.419231E+01
+2.412500E+01,-3.024359E+01
+2.413300E+01,-1.628205E+01
+2.414100E+01,-1.671795E+01
+2.414900E+01,-1.967949E+01
+2.415700E+01,-1.005128E+01
+2.416500E+01,+1.412821E+01
+2.417300E+01,+2.466667E+01
+2.418100E+01,+9.358974E-01
+2.418900E+01,-4.114103E+01
+2.419700E+01,-6.778205E+01
+2.420500E+01,-6.187179E+01
+2.421300E+01,-3.989744E+01
+2.422100E+01,-2.120513E+01
+2.422900E+01,-1.171795E+01
+2.423700E+01,-1.094872E+01
+2.424500E+01,-1.342308E+01
+2.425300E+01,-1.371795E+01
+2.426100E+01,-2.961538E+00
+2.426900E+01,+1.821795E+01
+2.427700E+01,+3.258974E+01
+2.428500E+01,+2.825641E+01
+2.429300E+01,+1.171795E+01
+2.430100E+01,+7.564103E+00
+2.430900E+01,+2.408974E+01
+2.431700E+01,+3.392308E+01
+2.432500E+01,+2.215385E+01
+2.433300E+01,+1.052564E+01
+2.434100E+01,+2.023077E+01
+2.434900E+01,+3.162821E+01
+2.435700E+01,+7.153846E+00
+2.436500E+01,-3.310256E+01
+2.437300E+01,-5.030769E+01
+2.438100E+01,-4.135897E+01
+2.438900E+01,-2.648718E+01
+2.439700E+01,-2.285897E+01
+2.440500E+01,-2.332051E+01
+2.441300E+01,-2.592308E+01
+2.442100E+01,-2.670513E+01
+2.442900E+01,-1.974359E+01
+2.443700E+01,+1.287179E+01
+2.444500E+01,+9.470513E+01
+2.445300E+01,+2.043846E+02
+2.446100E+01,+2.657308E+02
+2.446900E+01,+2.138462E+02
+2.447700E+01,+7.614103E+01
+2.448500E+01,-4.620513E+01
+2.449300E+01,-8.791026E+01
+2.450100E+01,-5.883333E+01
+2.450900E+01,-1.135897E+01
+2.451700E+01,+6.910256E+00
+2.452500E+01,-1.457692E+01
+2.453300E+01,-5.443590E+01
+2.454100E+01,-7.435897E+01
+2.454900E+01,-5.493590E+01
+2.455700E+01,-2.112821E+01
+2.456500E+01,-3.538462E+00
+2.457300E+01,-4.256410E+00
+2.458100E+01,-3.435897E+00
+2.458900E+01,+1.262821E+01
+2.459700E+01,+2.917949E+01
+2.460500E+01,+3.069231E+01
+2.461300E+01,+1.902564E+01
+2.462100E+01,+2.333333E+00
+2.462900E+01,-1.057692E+01
+2.463700E+01,-1.729487E+01
+2.464500E+01,-8.179487E+00
+2.465300E+01,+2.369231E+01
+2.466100E+01,+6.046154E+01
+2.466900E+01,+8.003846E+01
+2.467700E+01,+7.871795E+01
+2.468500E+01,+8.188462E+01
+2.469300E+01,+1.129359E+02
+2.470100E+01,+1.282564E+02
+2.470900E+01,+1.159487E+02
+2.471700E+01,+8.478205E+01
+2.472500E+01,+8.717949E+01
+2.473300E+01,+1.086667E+02
+2.474100E+01,+1.108205E+02
+2.474900E+01,+8.202564E+01
+2.475700E+01,+4.976923E+01
+2.476500E+01,+3.771795E+01
+2.477300E+01,+3.534615E+01
+2.478100E+01,+2.508974E+01
+2.478900E+01,+7.128205E+00
+2.479700E+01,-1.064103E+01
+2.480500E+01,-2.662821E+01
+2.481300E+01,-4.375641E+01
+2.482100E+01,-5.444872E+01
+2.482900E+01,-5.217949E+01
+2.483700E+01,-4.661538E+01
+2.484500E+01,-4.557692E+01
+2.485300E+01,-4.287179E+01
+2.486100E+01,-2.897436E+01
+2.486900E+01,-1.441026E+01
+2.487700E+01,-2.073077E+01
+2.488500E+01,-4.207692E+01
+2.489300E+01,-5.441026E+01
+2.490100E+01,-4.633333E+01
+2.490900E+01,-3.143590E+01
+2.491700E+01,-2.776923E+01
+2.492500E+01,-3.146154E+01
+2.493300E+01,-3.338462E+01
+2.494100E+01,-3.160256E+01
+2.494900E+01,-2.766667E+01
+2.495700E+01,-2.464103E+01
+2.496500E+01,-2.165385E+01
+2.497300E+01,-2.210256E+01
+2.498100E+01,-2.753846E+01
+2.498900E+01,-2.980769E+01
+2.499700E+01,-2.605128E+01
+2.500500E+01,-2.015385E+01
+2.501300E+01,-2.025641E+01
+2.502100E+01,-2.773077E+01
+2.502900E+01,-2.688462E+01
+2.503700E+01,-2.303846E+01
+2.504500E+01,-1.810256E+01
+2.505300E+01,-2.255128E+01
+2.506100E+01,-2.664103E+01
+2.506900E+01,-2.808974E+01
+2.507700E+01,-2.642308E+01
+2.508500E+01,-2.167949E+01
+2.509300E+01,-1.866667E+01
+2.510100E+01,-1.816667E+01
+2.510900E+01,-1.944872E+01
+2.511700E+01,-1.970513E+01
+2.512500E+01,-1.592308E+01
+2.513300E+01,-1.061538E+01
+2.514100E+01,-4.923077E+00
+2.514900E+01,-1.782051E+00
+2.515700E+01,-4.512821E+00
+2.516500E+01,-1.056410E+01
+2.517300E+01,-1.773077E+01
+2.518100E+01,-2.188462E+01
+2.518900E+01,-2.019231E+01
+2.519700E+01,-1.350000E+01
+2.520500E+01,-2.948718E+00
+2.521300E+01,+5.487179E+00
+2.522100E+01,+9.538462E+00
+2.522900E+01,+1.371795E+01
+2.523700E+01,+2.064103E+01
+2.524500E+01,+3.069231E+01
+2.525300E+01,+3.762821E+01
+2.526100E+01,+3.700000E+01
+2.526900E+01,+2.985897E+01
+2.527700E+01,+1.780769E+01
+2.528500E+01,+7.371795E+00
+2.529300E+01,+4.615385E-01
+2.530100E+01,-6.833333E+00
+2.530900E+01,-1.538462E+01
+2.531700E+01,-2.319231E+01
+2.532500E+01,-2.638462E+01
+2.533300E+01,-2.791026E+01
+2.534100E+01,-3.055128E+01
+2.534900E+01,-2.794872E+01
+2.535700E+01,-2.176923E+01
+2.536500E+01,-3.208974E+01
+2.537300E+01,-2.524359E+01
+2.538100E+01,+4.305128E+01
+2.538900E+01,+1.864231E+02
+2.539700E+01,+3.042436E+02
+2.540500E+01,+3.001538E+02
+2.541300E+01,+1.704744E+02
+2.542100E+01,+1.171795E+01
+2.542900E+01,-8.221795E+01
+2.543700E+01,-9.400000E+01
+2.544500E+01,-6.583333E+01
+2.545300E+01,-4.171795E+01
+2.546100E+01,-3.065385E+01
+2.546900E+01,-2.589744E+01
+2.547700E+01,-2.332051E+01
+2.548500E+01,-2.019231E+01
+2.548500E+01,-1.862821E+01
+2.549300E+01,-1.507692E+01
+2.550100E+01,-1.201282E+01
+2.550900E+01,-7.679487E+00
+2.551700E+01,-7.833333E+00
+2.552500E+01,-9.076923E+00
+2.553300E+01,-7.871795E+00
+2.554100E+01,-1.653846E+00
+2.554900E+01,+5.974359E+00
+2.555700E+01,+7.576923E+00
+2.556500E+01,+4.769231E+00
+2.557300E+01,+2.410256E+00
+2.558100E+01,+7.602564E+00
+2.558900E+01,+2.339744E+01
+2.559700E+01,+4.230769E+01
+2.560500E+01,+5.948718E+01
+2.561300E+01,+7.392308E+01
+2.562100E+01,+8.738462E+01
+2.562900E+01,+1.007051E+02
+2.563700E+01,+1.072051E+02
+2.564500E+01,+1.082949E+02
+2.565300E+01,+1.087821E+02
+2.566100E+01,+1.093590E+02
+2.566900E+01,+1.095513E+02
+2.567700E+01,+1.057564E+02
+2.568500E+01,+9.996154E+01
+2.569300E+01,+8.176923E+01
+2.570100E+01,+5.494872E+01
+2.570900E+01,+2.311538E+01
+2.571700E+01,-1.230769E+00
+2.572500E+01,-1.802564E+01
+2.573300E+01,-2.984615E+01
+2.574100E+01,-3.608974E+01
+2.574900E+01,-4.019231E+01
+2.575700E+01,-4.467949E+01
+2.576500E+01,-4.930769E+01
+2.577300E+01,-5.461538E+01
+2.578100E+01,-5.594872E+01
+2.578900E+01,-5.366667E+01
+2.579700E+01,-5.026923E+01
+2.580500E+01,-4.598718E+01
+2.581300E+01,-4.315385E+01
+2.582100E+01,-4.044872E+01
+2.582900E+01,-3.911538E+01
+2.583700E+01,-3.985897E+01
+2.584500E+01,-3.898718E+01
+2.585300E+01,-3.717949E+01
+2.586100E+01,-3.479487E+01
+2.586900E+01,-3.260256E+01
+2.587700E+01,-3.176923E+01
+2.588500E+01,-3.024359E+01
+2.589300E+01,-2.907692E+01
+2.590100E+01,-2.735897E+01
+2.590900E+01,-2.479487E+01
+2.591700E+01,-2.578205E+01
+2.592500E+01,-2.973077E+01
+2.593300E+01,-3.464103E+01
+2.594100E+01,-3.643590E+01
+2.594900E+01,-3.269231E+01
+2.595700E+01,-2.794872E+01
+2.596500E+01,-2.326923E+01
+2.597300E+01,-2.210256E+01
+2.598100E+01,-2.697436E+01
+2.598900E+01,-3.405128E+01
+2.599700E+01,-4.000000E+01
+2.600500E+01,-3.976923E+01
+2.601300E+01,-3.429487E+01
+2.602100E+01,-2.801282E+01
+2.602900E+01,-2.058974E+01
+2.603700E+01,-1.788462E+01
+2.604500E+01,-1.576923E+01
+2.605300E+01,-1.693590E+01
+2.606100E+01,-1.771795E+01
+2.606900E+01,-2.057692E+01
+2.607700E+01,-2.432051E+01
+2.608500E+01,-2.548718E+01
+2.609300E+01,-2.570513E+01
+2.610100E+01,-2.517949E+01
+2.610900E+01,-2.475641E+01
+2.611700E+01,-1.973077E+01
+2.612500E+01,-5.692308E+00
+2.613300E+01,+1.019231E+01
+2.614100E+01,+1.984615E+01
+2.614900E+01,+1.784615E+01
+2.615700E+01,+5.769231E+00
+2.616500E+01,-9.435897E+00
+2.617300E+01,-2.353846E+01
+2.618100E+01,-2.953846E+01
+2.618900E+01,-2.755128E+01
+2.619700E+01,-2.698718E+01
+2.620500E+01,-3.242308E+01
+2.621300E+01,-4.076923E+01
+2.622100E+01,-4.088462E+01
+2.622900E+01,-3.178205E+01
+2.623700E+01,-2.753846E+01
+2.624500E+01,-3.975641E+01
+2.625300E+01,-6.235897E+01
+2.626100E+01,-5.532051E+01
+2.626900E+01,+2.294872E+01
+2.627700E+01,+1.535256E+02
+2.628500E+01,+2.516538E+02
+2.629300E+01,+2.346282E+02
+2.630100E+01,+1.115769E+02
+2.630900E+01,-2.474359E+01
+2.631700E+01,-9.629487E+01
+2.632500E+01,-9.564103E+01
+2.633300E+01,-6.679487E+01
+2.634100E+01,-4.616667E+01
+2.634900E+01,-3.951282E+01
+2.635700E+01,-4.032051E+01
+2.636500E+01,-3.388462E+01
+2.637300E+01,-2.623077E+01
+2.638100E+01,-1.778205E+01
+2.638900E+01,-1.658974E+01
+2.639700E+01,-1.644872E+01
+2.640500E+01,-1.396154E+01
+2.641300E+01,-8.641026E+00
+2.642100E+01,+1.307692E+00
+2.642900E+01,+9.653846E+00
+2.643700E+01,+1.052564E+01
+2.644500E+01,+6.435897E+00
+2.645300E+01,+3.987179E+00
+2.646100E+01,+1.211538E+01
+2.646900E+01,+2.826923E+01
+2.647700E+01,+4.439744E+01
+2.648500E+01,+5.866667E+01
+2.649300E+01,+7.057692E+01
+2.650100E+01,+8.242308E+01
+2.650900E+01,+9.187179E+01
+2.651700E+01,+9.720513E+01
+2.652500E+01,+1.035641E+02
+2.653300E+01,+1.105769E+02
+2.654100E+01,+1.159231E+02
+2.654900E+01,+1.156026E+02
+2.655700E+01,+1.072051E+02
+2.656500E+01,+9.430769E+01
+2.657300E+01,+7.546154E+01
+2.658100E+01,+5.183333E+01
+2.658900E+01,+2.847436E+01
+2.659700E+01,+7.756410E+00
+2.660500E+01,-8.397436E+00
+2.661300E+01,-2.293590E+01
+2.662100E+01,-3.538462E+01
+2.662900E+01,-4.361538E+01
+2.663700E+01,-5.164103E+01
+2.664500E+01,-5.858974E+01
+2.665300E+01,-6.220513E+01
+2.666100E+01,-6.091026E+01
+2.666900E+01,-5.638462E+01
+2.667700E+01,-5.478205E+01
+2.668500E+01,-5.402564E+01
+2.669300E+01,-5.138462E+01
+2.670100E+01,-4.757692E+01
+2.670900E+01,-4.370513E+01
+2.671700E+01,-4.260256E+01
+2.672500E+01,-4.048718E+01
+2.673300E+01,-3.902564E+01
+2.674100E+01,-3.539744E+01
+2.674900E+01,-3.066667E+01
+2.675700E+01,-2.651282E+01
+2.676500E+01,-2.519231E+01
+2.677300E+01,-2.902564E+01
+2.678100E+01,-3.430769E+01
+2.678900E+01,-3.939744E+01
+2.679700E+01,-4.224359E+01
+2.680500E+01,-4.160256E+01
+2.681300E+01,-4.083333E+01
+2.682100E+01,-3.969231E+01
+2.682900E+01,-3.879487E+01
+2.683700E+01,-3.765385E+01
+2.684500E+01,-3.375641E+01
+2.685300E+01,-2.926923E+01
+2.686100E+01,-2.605128E+01
+2.686900E+01,-2.765385E+01
+2.687700E+01,-3.475641E+01
+2.688500E+01,-4.116667E+01
+2.689300E+01,-4.407692E+01
+2.690100E+01,-4.269231E+01
+2.690900E+01,-3.835897E+01
+2.691700E+01,-3.280769E+01
+2.692500E+01,-2.392308E+01
+2.693300E+01,-1.352564E+01
+2.694100E+01,-2.961538E+00
+2.694900E+01,+6.717949E+00
+2.695700E+01,+1.157692E+01
+2.696500E+01,+1.197436E+01
+2.697300E+01,+8.000000E+00
+2.698100E+01,-3.717949E-01
+2.698900E+01,-1.235897E+01
+2.699700E+01,-2.800000E+01
+2.700500E+01,-3.897436E+01
+2.701300E+01,-4.078205E+01
+2.702100E+01,-3.758974E+01
+2.702900E+01,-3.501282E+01
+2.703700E+01,-3.308974E+01
+2.704500E+01,-2.776923E+01
+2.705300E+01,-2.642308E+01
+2.706100E+01,-3.880769E+01
+2.706900E+01,-5.908974E+01
+2.707700E+01,-4.951282E+01
+2.708500E+01,+2.885897E+01
+2.709300E+01,+1.576154E+02
+2.710100E+01,+2.526923E+02
+2.710900E+01,+2.313718E+02
+2.711700E+01,+1.051667E+02
+2.712500E+01,-3.108974E+01
+2.713300E+01,-9.857692E+01
+2.714100E+01,-9.367949E+01
+2.714900E+01,-6.437179E+01
+2.715700E+01,-4.375641E+01
+2.716500E+01,-3.217949E+01
+2.717300E+01,-2.562821E+01
+2.718100E+01,-2.247436E+01
+2.718900E+01,-2.282051E+01
+2.719700E+01,-2.298718E+01
+2.720500E+01,-1.837179E+01
+2.721300E+01,-1.297436E+01
+2.722100E+01,-9.256410E+00
+2.722900E+01,-8.141026E+00
+2.723700E+01,-7.717949E+00
+2.724500E+01,-2.884615E+00
+2.725300E+01,+5.141026E+00
+2.726100E+01,+1.398718E+01
+2.726900E+01,+2.012821E+01
+2.727700E+01,+2.105128E+01
+2.728500E+01,+2.280769E+01
+2.729300E+01,+2.892308E+01
+2.730100E+01,+3.953846E+01
+2.730900E+01,+5.280769E+01
+2.731700E+01,+6.587179E+01
+2.732500E+01,+8.064103E+01
+2.733300E+01,+9.412821E+01
+2.734100E+01,+1.031410E+02
+2.734900E+01,+1.100128E+02
+2.735700E+01,+1.139231E+02
+2.736500E+01,+1.145128E+02
+2.737300E+01,+1.055641E+02
+2.738100E+01,+9.057692E+01
+2.738100E+01,+7.869231E+01
+2.738900E+01,+6.819231E+01
+2.739700E+01,+5.547436E+01
+2.740500E+01,+3.647436E+01
+2.741300E+01,+1.598718E+01
+2.742100E+01,-1.692308E+00
+2.742900E+01,-1.655128E+01
+2.743700E+01,-2.750000E+01
+2.744500E+01,-3.410256E+01
+2.745300E+01,-3.929487E+01
+2.746100E+01,-4.408974E+01
+2.746900E+01,-5.098718E+01
+2.747700E+01,-5.726923E+01
+2.748500E+01,-5.843590E+01
+2.749300E+01,-5.693590E+01
+2.750100E+01,-5.429487E+01
+2.750900E+01,-5.228205E+01
+2.751700E+01,-5.016667E+01
+2.752500E+01,-4.683333E+01
+2.753300E+01,-4.594872E+01
+2.754100E+01,-4.482051E+01
+2.754900E+01,-4.106410E+01
+2.755700E+01,-3.707692E+01
+2.756500E+01,-3.500000E+01
+2.757300E+01,-3.684615E+01
+2.758100E+01,-3.566667E+01
+2.758900E+01,-2.793590E+01
+2.759700E+01,-2.070513E+01
+2.760500E+01,-1.983333E+01
+2.761300E+01,-2.589744E+01
+2.762100E+01,-3.101282E+01
+2.762900E+01,-3.097436E+01
+2.763700E+01,-3.114103E+01
+2.764500E+01,-3.307692E+01
+2.765300E+01,-3.592308E+01
+2.766100E+01,-3.623077E+01
+2.766900E+01,-3.320513E+01
+2.767700E+01,-3.223077E+01
+2.768500E+01,-3.358974E+01
+2.769300E+01,-3.648718E+01
+2.770100E+01,-3.594872E+01
+2.770900E+01,-3.216667E+01
+2.771700E+01,-2.779487E+01
+2.772500E+01,-2.353846E+01
+2.773300E+01,-2.210256E+01
+2.774100E+01,-2.176923E+01
+2.774900E+01,-2.334615E+01
+2.775700E+01,-2.443590E+01
+2.776500E+01,-2.406410E+01
+2.777300E+01,-2.466667E+01
+2.778100E+01,-2.452564E+01
+2.778900E+01,-2.338462E+01
+2.779700E+01,-1.810256E+01
+2.780500E+01,-6.602564E+00
+2.781300E+01,+5.782051E+00
+2.782100E+01,+1.435897E+01
+2.782900E+01,+1.429487E+01
+2.783700E+01,+7.833333E+00
+2.784500E+01,+8.076923E-01
+2.785300E+01,-7.487179E+00
+2.786100E+01,-1.611538E+01
+2.786900E+01,-2.397436E+01
+2.787700E+01,-2.803846E+01
+2.788500E+01,-2.601282E+01
+2.789300E+01,-2.451282E+01
+2.790100E+01,-2.611538E+01
+2.790900E+01,-2.843590E+01
+2.791700E+01,-2.912821E+01
+2.792500E+01,-3.146154E+01
+2.793300E+01,-4.676923E+01
+2.794100E+01,-6.457692E+01
+2.794900E+01,-4.296154E+01
+2.795700E+01,+5.160256E+01
+2.796500E+01,+1.905256E+02
+2.797300E+01,+2.777436E+02
+2.798100E+01,+2.393205E+02
+2.798900E+01,+1.011795E+02
+2.799700E+01,-3.908974E+01
+2.800500E+01,-1.024103E+02
+2.801300E+01,-9.219231E+01
+2.802100E+01,-5.961538E+01
+2.802900E+01,-3.957692E+01
+2.803700E+01,-3.396154E+01
+2.804500E+01,-2.858974E+01
+2.805300E+01,-2.526923E+01
+2.806100E+01,-2.507692E+01
+2.806900E+01,-2.701282E+01
+2.807700E+01,-2.487179E+01
+2.808500E+01,-1.880769E+01
+2.809300E+01,-1.424359E+01
+2.810100E+01,-1.048718E+01
+2.810900E+01,-6.871795E+00
+2.811700E+01,-1.974359E+00
+2.812500E+01,+2.948718E+00
+2.813300E+01,+6.115385E+00
+2.814100E+01,+1.217949E+01
+2.814900E+01,+2.120513E+01
+2.815700E+01,+3.070513E+01
+2.816500E+01,+3.819231E+01
+2.817300E+01,+4.317949E+01
+2.818100E+01,+5.194872E+01
+2.818900E+01,+6.523077E+01
+2.819700E+01,+7.880769E+01
+2.820500E+01,+8.952564E+01
+2.821300E+01,+9.484615E+01
+2.822100E+01,+9.910256E+01
+2.822900E+01,+1.032308E+02
+2.823700E+01,+1.038077E+02
+2.824500E+01,+9.888462E+01
+2.825300E+01,+8.585897E+01
+2.826100E+01,+6.758974E+01
+2.826900E+01,+4.747436E+01
+2.827700E+01,+2.735897E+01
+2.828500E+01,+1.102564E+01
+2.829300E+01,-3.243590E+00
+2.830100E+01,-1.587179E+01
+2.830900E+01,-2.596154E+01
+2.831700E+01,-3.482051E+01
+2.832500E+01,-4.055128E+01
+2.833300E+01,-4.452564E+01
+2.834100E+01,-4.670513E+01
+2.834900E+01,-4.646154E+01
+2.835700E+01,-4.815385E+01
+2.836500E+01,-4.830769E+01
+2.837300E+01,-5.042308E+01
+2.838100E+01,-4.941026E+01
+2.838900E+01,-4.900000E+01
+2.839700E+01,-4.856410E+01
+2.840500E+01,-4.794872E+01
+2.841300E+01,-4.615385E+01
+2.842100E+01,-4.056410E+01
+2.842900E+01,-3.558974E+01
+2.843700E+01,-3.301282E+01
+2.844500E+01,-3.171795E+01
+2.845300E+01,-3.093590E+01
+2.846100E+01,-2.884615E+01
+2.846100E+01,-2.848718E+01
+2.846900E+01,-2.893590E+01
+2.847700E+01,-3.039744E+01
+2.848500E+01,-3.076923E+01
+2.849300E+01,-3.164103E+01
+2.850100E+01,-3.241026E+01
+2.850900E+01,-3.396154E+01
+2.851700E+01,-3.451282E+01
+2.852500E+01,-3.187179E+01
+2.853300E+01,-2.902564E+01
+2.854100E+01,-2.641026E+01
+2.854900E+01,-2.641026E+01
+2.855700E+01,-2.952564E+01
+2.856500E+01,-3.179487E+01
+2.857300E+01,-3.226923E+01
+2.858100E+01,-2.996154E+01
+2.858100E+01,-2.829487E+01
+2.858900E+01,-2.789744E+01
+2.859700E+01,-3.030769E+01
+2.860500E+01,-3.317949E+01
+2.861300E+01,-3.523077E+01
+2.862100E+01,-3.410256E+01
+2.862900E+01,-3.067949E+01
+2.863700E+01,-2.942308E+01
+2.864500E+01,-2.950000E+01
+2.865300E+01,-3.065385E+01
+2.866100E+01,-2.971795E+01
+2.866900E+01,-2.543590E+01
+2.867700E+01,-2.257692E+01
+2.868500E+01,-2.156410E+01
+2.869300E+01,-2.220513E+01
+2.870100E+01,-1.985897E+01
+2.870900E+01,-1.665385E+01
+2.871700E+01,-1.550000E+01
+2.872500E+01,-1.615385E+01
+2.873300E+01,-1.691026E+01
+2.874100E+01,-1.400000E+01
+2.874900E+01,-1.021795E+01
+2.875700E+01,-6.076923E+00
+2.876500E+01,-1.769231E+00
+2.877300E+01,+2.564103E+00
+2.878100E+01,+9.602564E+00
+2.878900E+01,+1.608974E+01
+2.879700E+01,+2.023077E+01
+2.880500E+01,+1.956410E+01
+2.881300E+01,+1.132051E+01
+2.882100E+01,+2.692308E-01
+2.882900E+01,-1.047436E+01
+2.883700E+01,-1.842308E+01
+2.884500E+01,-2.347436E+01
+2.885300E+01,-2.756410E+01
+2.886100E+01,-2.774359E+01
+2.886900E+01,-2.571795E+01
+2.887700E+01,-2.275641E+01
+2.888500E+01,-1.907692E+01
+2.889300E+01,-2.065385E+01
+2.890100E+01,-3.203846E+01
+2.890900E+01,-4.808974E+01
+2.891700E+01,-3.683333E+01
+2.892500E+01,+4.060256E+01
+2.893300E+01,+1.708718E+02
+2.894100E+01,+2.754359E+02
+2.894900E+01,+2.691923E+02
+2.895700E+01,+1.488077E+02
+2.896500E+01,+2.025641E+00
+2.897300E+01,-8.314103E+01
+2.898100E+01,-8.910256E+01
+2.898900E+01,-5.901282E+01
+2.899700E+01,-3.608974E+01
+2.900500E+01,-2.773077E+01
+2.901300E+01,-2.610256E+01
+2.902100E+01,-2.462821E+01
+2.902900E+01,-2.087179E+01
+2.903700E+01,-1.753846E+01
+2.904500E+01,-1.407692E+01
+2.905300E+01,-1.591026E+01
+2.906100E+01,-1.794872E+01
+2.906900E+01,-1.955128E+01
+2.907700E+01,-1.674359E+01
+2.908500E+01,-1.025641E+01
+2.909300E+01,-4.487179E+00
+2.910100E+01,+5.256410E-01
+2.910900E+01,+5.615385E+00
+2.911700E+01,+1.525641E+01
+2.912500E+01,+2.791026E+01
+2.913300E+01,+3.800000E+01
+2.914100E+01,+4.701282E+01
+2.914900E+01,+5.652564E+01
+2.915700E+01,+6.844872E+01
+2.916500E+01,+8.152564E+01
+2.917300E+01,+9.180769E+01
+2.918100E+01,+1.001795E+02
+2.918100E+01,+1.038846E+02
+2.918900E+01,+1.068333E+02
+2.919700E+01,+1.066923E+02
+2.920500E+01,+1.062949E+02
+2.921300E+01,+1.019359E+02
+2.922100E+01,+9.435897E+01
+2.922900E+01,+8.208974E+01
+2.923700E+01,+6.584615E+01
+2.924500E+01,+4.926923E+01
+2.925300E+01,+3.144872E+01
+2.926100E+01,+1.389744E+01
+2.926900E+01,-3.192308E+00
+2.927700E+01,-1.865385E+01
+2.928500E+01,-2.857692E+01
+2.929300E+01,-3.544872E+01
+2.930100E+01,-4.078205E+01
+2.930900E+01,-4.544872E+01
+2.931700E+01,-4.898718E+01
+2.932500E+01,-4.801282E+01
+2.933300E+01,-4.587179E+01
+2.934100E+01,-4.434615E+01
+2.934900E+01,-4.305128E+01
+2.935700E+01,-4.382051E+01
+2.936500E+01,-4.347436E+01
+2.937300E+01,-4.433333E+01
+2.938100E+01,-4.223077E+01
+2.938900E+01,-4.075641E+01
+2.939700E+01,-4.026923E+01
+2.940500E+01,-4.146154E+01
+2.941300E+01,-4.292308E+01
+2.942100E+01,-4.167949E+01
+2.942900E+01,-3.976923E+01
+2.943700E+01,-3.658974E+01
+2.944500E+01,-3.343590E+01
+2.945300E+01,-3.280769E+01
+2.946100E+01,-3.379487E+01
+2.946900E+01,-3.698718E+01
+2.947700E+01,-3.826923E+01
+2.948500E+01,-3.583333E+01
+2.949300E+01,-3.346154E+01
+2.950100E+01,-3.312821E+01
+2.950900E+01,-3.711538E+01
+2.951700E+01,-4.089744E+01
+2.951700E+01,-4.287179E+01
+2.952500E+01,-3.951282E+01
+2.953300E+01,-3.432051E+01
+2.954100E+01,-2.933333E+01
+2.954100E+01,-2.802564E+01
+2.954900E+01,-2.912821E+01
+2.955700E+01,-3.166667E+01
+2.956500E+01,-3.314103E+01
+2.957300E+01,-3.405128E+01
+2.958100E+01,-3.324359E+01
+2.958900E+01,-3.093590E+01
+2.959700E+01,-2.676923E+01
+2.960500E+01,-2.037179E+01
+2.961300E+01,-1.719231E+01
+2.962100E+01,-1.919231E+01
+2.962900E+01,-2.542308E+01
+2.963700E+01,-3.161538E+01
+2.963700E+01,-3.415385E+01
+2.964500E+01,-3.166667E+01
+2.965300E+01,-2.626923E+01
+2.966100E+01,-2.184615E+01
+2.966900E+01,-2.056410E+01
+2.967700E+01,-2.238462E+01
+2.968500E+01,-2.271795E+01
+2.969300E+01,-2.496154E+01
+2.970100E+01,-2.444872E+01
+2.970900E+01,-2.241026E+01
+2.971700E+01,-1.743590E+01
+2.972500E+01,-1.508974E+01
+2.973300E+01,-1.806410E+01
+2.974100E+01,-2.203846E+01
+2.974900E+01,-2.385897E+01
+2.975700E+01,-2.058974E+01
+2.976500E+01,-1.633333E+01
+2.977300E+01,-1.521795E+01
+2.978100E+01,-1.316667E+01
+2.978900E+01,-6.961538E+00
+2.979700E+01,+5.576923E+00
+2.980500E+01,+1.970513E+01
+2.981300E+01,+2.800000E+01
+2.982100E+01,+2.965385E+01
+2.982900E+01,+2.278205E+01
+2.983700E+01,+1.010256E+01
+2.984500E+01,-4.525641E+00
+2.985300E+01,-1.842308E+01
+2.986100E+01,-2.608974E+01
+2.986900E+01,-2.791026E+01
+2.987700E+01,-2.520513E+01
+2.988500E+01,-2.101282E+01
+2.989300E+01,-2.053846E+01
+2.990100E+01,-1.980769E+01
+2.990900E+01,-1.806410E+01
+2.991700E+01,-2.037179E+01
+2.992500E+01,-3.362821E+01
+2.993300E+01,-5.124359E+01
+2.994100E+01,-3.279487E+01
+2.994900E+01,+5.625641E+01
+2.995700E+01,+1.904359E+02
+2.996500E+01,+2.801667E+02
+2.997300E+01,+2.455000E+02
+2.998100E+01,+1.085385E+02
+2.998900E+01,-3.041026E+01
+2.999700E+01,-9.284615E+01
+3.000500E+01,-8.123077E+01
+3.001300E+01,-4.975641E+01
+3.002100E+01,-3.085897E+01
+3.002900E+01,-2.432051E+01
+3.003700E+01,-2.201282E+01
+3.004500E+01,-2.012821E+01
+3.005300E+01,-2.016667E+01
+3.006100E+01,-1.558974E+01
+3.006900E+01,-9.884615E+00
+3.007700E+01,-4.820513E+00
+3.008500E+01,-3.320513E+00
+3.009300E+01,-3.038462E+00
+3.010100E+01,+5.000000E-01
+3.010900E+01,+4.833333E+00
+3.011700E+01,+9.666667E+00
+3.012500E+01,+1.506410E+01
+3.013300E+01,+2.208974E+01
+3.014100E+01,+3.242308E+01
+3.014900E+01,+4.174359E+01
+3.015700E+01,+5.052564E+01
+3.016500E+01,+5.915385E+01
+3.017300E+01,+6.592308E+01
+3.018100E+01,+7.388462E+01
+3.018900E+01,+8.415385E+01
+3.019700E+01,+9.780769E+01
+3.020500E+01,+1.104231E+02
+3.021300E+01,+1.154744E+02
+3.022100E+01,+1.172692E+02
+3.022900E+01,+1.186667E+02
+3.023700E+01,+1.175897E+02
+3.024500E+01,+1.085897E+02
+3.025300E+01,+8.878205E+01
+3.026100E+01,+6.733333E+01
+3.026900E+01,+4.869231E+01
+3.027700E+01,+3.096154E+01
+3.028500E+01,+1.369231E+01
+3.029300E+01,-2.692308E+00
+3.030100E+01,-1.324359E+01
+3.030900E+01,-1.952564E+01
+3.031700E+01,-2.541026E+01
+3.032500E+01,-3.028205E+01
+3.033300E+01,-3.489744E+01
+3.034100E+01,-3.752564E+01
+3.034900E+01,-3.866667E+01
+3.035700E+01,-4.024359E+01
+3.036500E+01,-4.029487E+01
+3.037300E+01,-4.142308E+01
+3.038100E+01,-3.984615E+01
+3.038900E+01,-3.947436E+01
+3.039700E+01,-3.908974E+01
+3.040500E+01,-3.928205E+01
+3.041300E+01,-3.866667E+01
+3.042100E+01,-3.547436E+01
+3.042900E+01,-3.307692E+01
+3.043700E+01,-3.105128E+01
+3.044500E+01,-2.957692E+01
+3.045300E+01,-2.869231E+01
+3.046100E+01,-2.802564E+01
+3.046900E+01,-3.057692E+01
+3.047700E+01,-3.238462E+01
+3.048500E+01,-3.015385E+01
+3.049300E+01,-2.605128E+01
+3.050100E+01,-2.365385E+01
+3.050900E+01,-2.706410E+01
+3.051700E+01,-3.103846E+01
+3.052500E+01,-3.124359E+01
+3.053300E+01,-3.001282E+01
+3.054100E+01,-2.842308E+01
+3.054900E+01,-2.841026E+01
+3.055700E+01,-2.771795E+01
+3.056500E+01,-2.534615E+01
+3.057300E+01,-2.389744E+01
+3.058100E+01,-2.261538E+01
+3.058900E+01,-2.325641E+01
+3.059700E+01,-2.582051E+01
+3.060500E+01,-2.748718E+01
+3.061300E+01,-2.810256E+01
+3.062100E+01,-2.655128E+01
+3.062900E+01,-2.633333E+01
+3.063700E+01,-2.887179E+01
+3.064500E+01,-2.996154E+01
+3.065300E+01,-2.860256E+01
+3.066100E+01,-2.469231E+01
+3.066900E+01,-2.098718E+01
+3.067700E+01,-1.994872E+01
+3.068500E+01,-1.898718E+01
+3.069300E+01,-1.933333E+01
+3.070100E+01,-1.748718E+01
+3.070900E+01,-1.694872E+01
+3.071700E+01,-1.688462E+01
+3.072500E+01,-1.883333E+01
+3.073300E+01,-2.173077E+01
+3.074100E+01,-2.164103E+01
+3.074900E+01,-1.796154E+01
+3.075700E+01,-1.029487E+01
+3.076500E+01,-3.884615E+00
+3.077300E+01,-6.666667E-01
+3.078100E+01,+3.500000E+00
+3.078900E+01,+9.038462E+00
+3.079700E+01,+1.619231E+01
+3.080500E+01,+2.171795E+01
+3.081300E+01,+2.385897E+01
+3.082100E+01,+2.434615E+01
+3.082900E+01,+1.925641E+01
+3.083700E+01,+8.525641E+00
+3.084500E+01,-4.756410E+00
+3.085300E+01,-1.617949E+01
+3.086100E+01,-2.089744E+01
+3.086900E+01,-2.260256E+01
+3.087700E+01,-2.493590E+01
+3.088500E+01,-2.808974E+01
+3.089300E+01,-2.896154E+01
+3.090100E+01,-2.310256E+01
+3.090900E+01,-2.053846E+01
+3.091700E+01,-3.364103E+01
+3.092500E+01,-5.435897E+01
+3.093300E+01,-4.385897E+01
+3.094100E+01,+4.106410E+01
+3.094900E+01,+1.798718E+02
+3.095700E+01,+2.803077E+02
+3.096500E+01,+2.582949E+02
+3.097300E+01,+1.243205E+02
+3.098100E+01,-1.976923E+01
+3.098900E+01,-8.743590E+01
+3.099700E+01,-7.811538E+01
+3.100500E+01,-4.442308E+01
+3.101300E+01,-2.660256E+01
+3.102100E+01,-2.067949E+01
+3.102900E+01,-2.057692E+01
+3.103700E+01,-2.150000E+01
+3.104500E+01,-2.576923E+01
+3.105300E+01,-2.562821E+01
+3.106100E+01,-1.921795E+01
+3.106900E+01,-1.188462E+01
+3.107700E+01,-5.410256E+00
+3.108500E+01,-1.743590E+00
+3.109300E+01,+5.000000E-01
+3.110100E+01,+3.384615E+00
+3.110900E+01,+6.730769E+00
+3.111700E+01,+1.446154E+01
+3.112500E+01,+2.452564E+01
+3.113300E+01,+3.251282E+01
+3.114100E+01,+3.778205E+01
+3.114900E+01,+4.116667E+01
+3.115700E+01,+4.946154E+01
+3.116500E+01,+6.347436E+01
+3.117300E+01,+7.838462E+01
+3.118100E+01,+9.121795E+01
+3.118900E+01,+9.953846E+01
+3.119700E+01,+1.068590E+02
+3.120500E+01,+1.139487E+02
+3.121300E+01,+1.176410E+02
+3.122100E+01,+1.181282E+02
+3.122900E+01,+1.135897E+02
+3.123700E+01,+1.048462E+02
+3.124500E+01,+9.133333E+01
+3.125300E+01,+7.206410E+01
+3.126100E+01,+5.258974E+01
+3.126900E+01,+3.441026E+01
+3.127700E+01,+1.743590E+01
+3.128500E+01,+1.615385E+00
+3.129300E+01,-1.401282E+01
+3.130100E+01,-2.602564E+01
+3.130900E+01,-3.516667E+01
+3.131700E+01,-4.215385E+01
+3.132500E+01,-4.511538E+01
+3.133300E+01,-4.664103E+01
+3.134100E+01,-4.687179E+01
+3.134100E+01,-4.784615E+01
+3.134900E+01,-4.807692E+01
+3.135700E+01,-4.438462E+01
+3.136500E+01,-4.007692E+01
+3.137300E+01,-3.698718E+01
+3.138100E+01,-3.558974E+01
+3.138900E+01,-3.576923E+01
+3.139700E+01,-3.530769E+01
+3.140500E+01,-3.565385E+01
+3.141300E+01,-3.529487E+01
+3.142100E+01,-3.350000E+01
+3.142900E+01,-3.255128E+01
+3.143700E+01,-3.116667E+01
+3.144500E+01,-3.082051E+01
+3.145300E+01,-3.210256E+01
+3.146100E+01,-3.414103E+01
+3.146900E+01,-3.735897E+01
+3.147700E+01,-3.734615E+01
+3.148500E+01,-3.491026E+01
+3.149300E+01,-3.316667E+01
+3.150100E+01,-3.233333E+01
+3.150900E+01,-3.396154E+01
+3.151700E+01,-3.566667E+01
+3.152500E+01,-3.716667E+01
+3.153300E+01,-3.891026E+01
+3.154100E+01,-3.862821E+01
+3.154900E+01,-3.843590E+01
+3.155700E+01,-3.715385E+01
+3.156500E+01,-3.438462E+01
+3.156500E+01,-3.203846E+01
+3.157300E+01,-2.991026E+01
+3.158100E+01,-2.932051E+01
+3.158900E+01,-2.856410E+01
+3.159700E+01,-2.930769E+01
+3.160500E+01,-3.044872E+01
+3.161300E+01,-3.280769E+01
+3.162100E+01,-3.265385E+01
+3.162900E+01,-3.050000E+01
+3.163700E+01,-2.798718E+01
+3.164500E+01,-2.574359E+01
+3.165300E+01,-2.498718E+01
+3.166100E+01,-2.326923E+01
+3.166900E+01,-2.169231E+01
+3.167700E+01,-2.057692E+01
+3.168500E+01,-1.742308E+01
+3.169300E+01,-1.830769E+01
+3.170100E+01,-2.161538E+01
+3.170900E+01,-2.873077E+01
+3.171700E+01,-3.025641E+01
+3.172500E+01,-2.760256E+01
+3.173300E+01,-2.351282E+01
+3.174100E+01,-1.971795E+01
+3.174900E+01,-1.628205E+01
+3.175700E+01,-9.358974E+00
+3.176500E+01,+8.589744E-01
+3.177300E+01,+1.306410E+01
+3.178100E+01,+2.408974E+01
+3.178900E+01,+2.829487E+01
+3.179700E+01,+2.764103E+01
+3.180500E+01,+2.337179E+01
+3.181300E+01,+1.450000E+01
+3.182100E+01,+6.538462E-01
+3.182900E+01,-1.667949E+01
+3.183700E+01,-2.816667E+01
+3.184500E+01,-3.032051E+01
+3.185300E+01,-2.847436E+01
+3.186100E+01,-2.775641E+01
+3.186900E+01,-2.989744E+01
+3.187700E+01,-2.720513E+01
+3.188500E+01,-1.887179E+01
+3.189300E+01,-1.753846E+01
+3.190100E+01,-3.360256E+01
+3.190900E+01,-5.539744E+01
+3.191700E+01,-3.466667E+01
+3.192500E+01,+6.391026E+01
+3.193300E+01,+2.006923E+02
+3.194100E+01,+2.757051E+02
+3.194900E+01,+2.192308E+02
+3.195700E+01,+7.288462E+01
+3.196500E+01,-5.482051E+01
+3.197300E+01,-9.933333E+01
+3.198100E+01,-7.875641E+01
+3.198900E+01,-4.832051E+01
+3.199700E+01,-3.401282E+01
+3.200500E+01,-2.900000E+01
+3.201300E+01,-2.612821E+01
+3.202100E+01,-2.148718E+01
+3.202900E+01,-1.791026E+01
+3.203700E+01,-1.361538E+01
+3.204500E+01,-1.260256E+01
+3.205300E+01,-1.357692E+01
+3.206100E+01,-1.219231E+01
+3.206900E+01,-7.782051E+00
+3.207700E+01,-1.384615E+00
+3.208500E+01,+3.025641E+00
+3.209300E+01,+7.846154E+00
+3.210100E+01,+1.580769E+01
+3.210900E+01,+2.375641E+01
+3.211700E+01,+3.137179E+01
+3.212500E+01,+3.760256E+01
+3.213300E+01,+4.493590E+01
+3.214100E+01,+5.589744E+01
+3.214900E+01,+6.780769E+01
+3.215700E+01,+8.058974E+01
+3.216500E+01,+9.091026E+01
+3.217300E+01,+9.761538E+01
+3.218100E+01,+1.037436E+02
+3.218900E+01,+1.088333E+02
+3.219700E+01,+1.140000E+02
+3.220500E+01,+1.158846E+02
+3.221300E+01,+1.101026E+02
+3.222100E+01,+9.651282E+01
+3.222900E+01,+7.639744E+01
+3.223700E+01,+5.679487E+01
+3.224500E+01,+4.014103E+01
+3.225300E+01,+2.273077E+01
+3.226100E+01,+5.192308E+00
+3.226900E+01,-1.035897E+01
+3.227700E+01,-2.005128E+01
+3.228500E+01,-2.574359E+01
+3.229300E+01,-3.302564E+01
+3.230100E+01,-3.998718E+01
+3.230900E+01,-4.470513E+01
+3.231700E+01,-4.644872E+01
+3.232500E+01,-4.565385E+01
+3.233300E+01,-4.488462E+01
+3.234100E+01,-4.264103E+01
+3.234900E+01,-4.129487E+01
+3.235700E+01,-4.138462E+01
+3.236500E+01,-4.017949E+01
+3.237300E+01,-3.817949E+01
+3.238100E+01,-3.470513E+01
+3.238900E+01,-3.519231E+01
+3.239700E+01,-3.633333E+01
+3.240500E+01,-3.762821E+01
+3.241300E+01,-3.765385E+01
+3.242100E+01,-3.679487E+01
+3.242900E+01,-3.657692E+01
+3.243700E+01,-3.502564E+01
+3.244500E+01,-3.465385E+01
+3.245300E+01,-3.519231E+01
+3.246100E+01,-3.465385E+01
+3.246900E+01,-3.437179E+01
+3.247700E+01,-3.335897E+01
+3.248500E+01,-3.411538E+01
+3.249300E+01,-3.582051E+01
+3.250100E+01,-3.608974E+01
+3.250900E+01,-3.657692E+01
+3.251700E+01,-3.541026E+01
+3.252500E+01,-3.370513E+01
+3.253300E+01,-3.312821E+01
+3.254100E+01,-3.329487E+01
+3.254900E+01,-3.498718E+01
+3.255700E+01,-3.410256E+01
+3.256500E+01,-3.119231E+01
+3.257300E+01,-3.026923E+01
+3.258100E+01,-3.124359E+01
+3.258900E+01,-3.347436E+01
+3.259700E+01,-3.238462E+01
+3.260500E+01,-2.828205E+01
+3.261300E+01,-2.708974E+01
+3.262100E+01,-2.908974E+01
+3.262900E+01,-3.203846E+01
+3.263700E+01,-3.066667E+01
+3.264500E+01,-2.482051E+01
+3.265300E+01,-2.108974E+01
+3.266100E+01,-1.962821E+01
+3.266900E+01,-1.991026E+01
+3.267700E+01,-2.123077E+01
+3.268500E+01,-2.298718E+01
+3.269300E+01,-2.279487E+01
+3.270100E+01,-1.666667E+01
+3.270900E+01,-9.820513E+00
+3.271700E+01,-4.679487E+00
+3.272500E+01,-5.769231E-01
+3.273300E+01,+8.384615E+00
+3.274100E+01,+2.162821E+01
+3.274900E+01,+3.180769E+01
+3.275700E+01,+3.438462E+01
+3.276500E+01,+2.579487E+01
+3.277300E+01,+1.117949E+01
+3.278100E+01,-3.217949E+00
+3.278900E+01,-1.541026E+01
+3.279700E+01,-2.379487E+01
+3.280500E+01,-3.115385E+01
+3.281300E+01,-3.597436E+01
+3.282100E+01,-3.621795E+01
+3.282900E+01,-3.328205E+01
+3.283700E+01,-2.669231E+01
+3.284500E+01,-2.201282E+01
+3.285300E+01,-2.729487E+01
+3.286100E+01,-4.543590E+01
+3.286900E+01,-5.632051E+01
+3.287700E+01,-1.182051E+01
+3.288500E+01,+1.065256E+02
+3.289300E+01,+2.387564E+02
+3.290100E+01,+2.823590E+02
+3.290900E+01,+1.926923E+02
+3.291700E+01,+3.919231E+01
+3.292500E+01,-7.080769E+01
+3.293300E+01,-9.401282E+01
+3.294100E+01,-6.482051E+01
+3.294900E+01,-3.714103E+01
+3.295700E+01,-2.864103E+01
+3.296500E+01,-2.970513E+01
+3.297300E+01,-2.994872E+01
+3.298100E+01,-2.505128E+01
+3.298900E+01,-1.906410E+01
+3.299700E+01,-1.507692E+01
+3.300500E+01,-1.251282E+01
+3.301300E+01,-9.935897E+00
+3.302100E+01,-2.961538E+00
+3.302900E+01,+1.217949E+00
+3.303700E+01,+5.205128E+00
+3.304500E+01,+7.179487E+00
+3.305300E+01,+1.234615E+01
+3.306100E+01,+1.950000E+01
+3.306900E+01,+2.552564E+01
+3.307700E+01,+3.166667E+01
+3.308500E+01,+3.853846E+01
+3.309300E+01,+5.016667E+01
+3.310100E+01,+6.543590E+01
+3.310900E+01,+7.862821E+01
+3.311700E+01,+8.882051E+01
+3.312500E+01,+9.530769E+01
+3.313300E+01,+1.022179E+02
+3.314100E+01,+1.098590E+02
+3.314900E+01,+1.137436E+02
+3.315700E+01,+1.148462E+02
+3.316500E+01,+1.127692E+02
+3.317300E+01,+1.071282E+02
+3.318100E+01,+9.547436E+01
+3.318900E+01,+7.564103E+01
+3.319700E+01,+5.432051E+01
+3.320500E+01,+3.505128E+01
+3.321300E+01,+1.834615E+01
+3.322100E+01,+3.794872E+00
+3.322900E+01,-1.078205E+01
+3.323700E+01,-2.257692E+01
+3.324500E+01,-3.156410E+01
+3.325300E+01,-3.888462E+01
+3.326100E+01,-4.315385E+01
+3.326900E+01,-4.670513E+01
+3.327700E+01,-4.837179E+01
+3.328500E+01,-4.794872E+01
+3.329300E+01,-4.711538E+01
+3.330100E+01,-4.525641E+01
+3.330900E+01,-4.498718E+01
+3.331700E+01,-4.462821E+01
+3.332500E+01,-4.269231E+01
+3.333300E+01,-4.067949E+01
+3.334100E+01,-3.693590E+01
+3.334900E+01,-3.376923E+01
+3.335700E+01,-3.162821E+01
+3.336500E+01,-3.094872E+01
+3.337300E+01,-3.025641E+01
+3.338100E+01,-2.779487E+01
+3.338900E+01,-2.717949E+01
+3.339700E+01,-2.862821E+01
+3.340500E+01,-3.243590E+01
+3.341300E+01,-3.450000E+01
+3.342100E+01,-3.503846E+01
+3.342900E+01,-3.610256E+01
+3.343700E+01,-3.658974E+01
+3.344500E+01,-3.706410E+01
+3.345300E+01,-3.578205E+01
+3.346100E+01,-3.364103E+01
+3.346900E+01,-3.343590E+01
+3.347700E+01,-3.310256E+01
+3.348500E+01,-3.283333E+01
+3.349300E+01,-3.169231E+01
+3.350100E+01,-2.998718E+01
+3.350100E+01,-2.948718E+01
+3.350900E+01,-2.973077E+01
+3.351700E+01,-3.092308E+01
+3.352500E+01,-3.064103E+01
+3.353300E+01,-2.883333E+01
+3.354100E+01,-2.641026E+01
+3.354900E+01,-2.760256E+01
+3.355700E+01,-2.894872E+01
+3.356500E+01,-2.748718E+01
+3.357300E+01,-2.356410E+01
+3.358100E+01,-1.996154E+01
+3.358900E+01,-2.155128E+01
+3.359700E+01,-2.424359E+01
+3.360500E+01,-2.362821E+01
+3.361300E+01,-1.793590E+01
+3.362100E+01,-6.858974E+00
+3.362900E+01,+3.294872E+00
+3.363700E+01,+1.092308E+01
+3.364500E+01,+1.646154E+01
+3.365300E+01,+2.030769E+01
+3.366100E+01,+2.293590E+01
+3.366900E+01,+1.825641E+01
+3.367700E+01,+5.243590E+00
+3.368500E+01,-1.356410E+01
+3.369300E+01,-2.764103E+01
+3.370100E+01,-3.256410E+01
+3.370900E+01,-3.151282E+01
+3.371700E+01,-2.997436E+01
+3.372500E+01,-2.979487E+01
+3.373300E+01,-2.793590E+01
+3.374100E+01,-2.793590E+01
+3.374900E+01,-3.805128E+01
+3.375700E+01,-5.266667E+01
+3.376500E+01,-3.973077E+01
+3.377300E+01,+3.989744E+01
+3.378100E+01,+1.669487E+02
+3.378900E+01,+2.524615E+02
+3.379700E+01,+2.208205E+02
+3.380500E+01,+9.000000E+01
+3.381300E+01,-4.206410E+01
+3.382100E+01,-1.013205E+02
+3.382900E+01,-9.450000E+01
+3.383700E+01,-6.544872E+01
+3.384500E+01,-4.387179E+01
+3.385300E+01,-3.182051E+01
+3.386100E+01,-2.550000E+01
+3.386900E+01,-2.466667E+01
+3.387700E+01,-2.269231E+01
+3.388500E+01,-1.639744E+01
+3.389300E+01,-7.756410E+00
+3.390100E+01,-6.794872E-01
+3.390900E+01,+5.769231E-01
+3.391700E+01,-7.307692E-01
+3.392500E+01,-1.641026E+00
+3.393300E+01,-2.948718E-01
+3.394100E+01,+4.602564E+00
+3.394900E+01,+1.019231E+01
+3.395700E+01,+1.766667E+01
+3.396500E+01,+2.635897E+01
+3.397300E+01,+3.421795E+01
+3.398100E+01,+4.247436E+01
+3.398900E+01,+5.060256E+01
+3.399700E+01,+6.128205E+01
+3.400500E+01,+7.505128E+01
+3.401300E+01,+8.924359E+01
+3.402100E+01,+1.049872E+02
+3.402900E+01,+1.136282E+02
+3.403700E+01,+1.192949E+02
+3.404500E+01,+1.203333E+02
+3.405300E+01,+1.223462E+02
+3.406100E+01,+1.195128E+02
+3.406900E+01,+1.080128E+02
+3.407700E+01,+8.983333E+01
+3.408500E+01,+6.678205E+01
+3.409300E+01,+4.401282E+01
+3.410100E+01,+2.300000E+01
+3.410900E+01,+3.461538E+00
+3.411700E+01,-1.346154E+01
+3.412500E+01,-2.883333E+01
+3.413300E+01,-3.943590E+01
+3.414100E+01,-4.503846E+01
+3.414900E+01,-4.902564E+01
+3.415700E+01,-5.143590E+01
+3.416500E+01,-5.344872E+01
+3.417300E+01,-5.261538E+01
+3.418100E+01,-4.889744E+01
+3.418900E+01,-4.608974E+01
+3.419700E+01,-4.388462E+01
+3.420500E+01,-4.394872E+01
+3.421300E+01,-4.525641E+01
+3.422100E+01,-4.562821E+01
+3.422100E+01,-4.602564E+01
+3.422900E+01,-4.378205E+01
+3.423700E+01,-4.146154E+01
+3.424500E+01,-3.819231E+01
+3.425300E+01,-3.753846E+01
+3.426100E+01,-3.839744E+01
+3.426900E+01,-4.041026E+01
+3.427700E+01,-3.987179E+01
+3.428500E+01,-3.761538E+01
+3.429300E+01,-3.650000E+01
+3.430100E+01,-3.685897E+01
+3.430900E+01,-3.982051E+01
+3.431700E+01,-4.171795E+01
+3.432500E+01,-4.074359E+01
+3.433300E+01,-3.847436E+01
+3.434100E+01,-3.553846E+01
+3.434900E+01,-3.601282E+01
+3.435700E+01,-3.857692E+01
+3.436500E+01,-3.905128E+01
+3.437300E+01,-3.596154E+01
+3.438100E+01,-3.230769E+01
+3.438900E+01,-3.660256E+01
+3.439700E+01,-4.493590E+01
+3.440500E+01,-5.088462E+01
+3.441300E+01,-4.841026E+01
+3.442100E+01,-4.151282E+01
+3.442900E+01,-3.528205E+01
+3.443700E+01,-2.996154E+01
+3.444500E+01,-2.638462E+01
+3.445300E+01,-2.132051E+01
+3.446100E+01,-1.379487E+01
+3.446900E+01,-4.974359E+00
+3.447700E+01,+4.076923E+00
+3.448500E+01,+8.217949E+00
+3.449300E+01,+8.051282E+00
+3.450100E+01,+4.384615E+00
+3.450900E+01,-3.897436E+00
+3.451700E+01,-1.412821E+01
+3.452500E+01,-2.485897E+01
+3.453300E+01,-3.169231E+01
+3.454100E+01,-3.321795E+01
+3.454900E+01,-3.484615E+01
+3.455700E+01,-3.806410E+01
+3.456500E+01,-4.241026E+01
+3.457300E+01,-4.229487E+01
+3.458100E+01,-3.787179E+01
+3.458900E+01,-4.232051E+01
+3.459700E+01,-5.992308E+01
+3.460500E+01,-6.785897E+01
+3.461300E+01,-2.078205E+01
+3.462100E+01,+9.538462E+01
+3.462900E+01,+2.162308E+02
+3.463700E+01,+2.481667E+02
+3.464500E+01,+1.592692E+02
+3.465300E+01,+1.607692E+01
+3.466100E+01,-8.317949E+01
+3.466900E+01,-1.033718E+02
+3.467700E+01,-7.655128E+01
+3.468500E+01,-4.980769E+01
+3.469300E+01,-3.844872E+01
+3.470100E+01,-3.237179E+01
+3.470900E+01,-2.537179E+01
+3.471700E+01,-1.929487E+01
+3.472500E+01,-1.952564E+01
+3.473300E+01,-2.179487E+01
+3.474100E+01,-2.225641E+01
+3.474900E+01,-1.998718E+01
+3.475700E+01,-1.619231E+01
+3.476500E+01,-1.303846E+01
+3.477300E+01,-7.192308E+00
+3.478100E+01,+2.435897E-01
+3.478900E+01,+7.179487E+00
+3.479700E+01,+1.444872E+01
+3.480500E+01,+2.071795E+01
+3.481300E+01,+2.738462E+01
+3.482100E+01,+3.421795E+01
+3.482900E+01,+4.196154E+01
+3.483700E+01,+5.416667E+01
+3.484500E+01,+6.835897E+01
+3.485300E+01,+8.262821E+01
+3.486100E+01,+9.487179E+01
+3.486900E+01,+1.024615E+02
+3.487700E+01,+1.068846E+02
+3.488500E+01,+1.078718E+02
+3.489300E+01,+1.074359E+02
+3.490100E+01,+1.061154E+02
+3.490900E+01,+9.930769E+01
+3.491700E+01,+8.612821E+01
+3.492500E+01,+6.620513E+01
+3.493300E+01,+4.316667E+01
+3.494100E+01,+2.167949E+01
+3.494900E+01,+2.371795E+00
+3.495700E+01,-1.084615E+01
+3.496500E+01,-1.760256E+01
+3.497300E+01,-2.211538E+01
+3.498100E+01,-2.776923E+01
+3.498900E+01,-3.700000E+01
+3.499700E+01,-4.448718E+01
+3.500500E+01,-4.765385E+01
+3.501300E+01,-4.934615E+01
+3.502100E+01,-5.012821E+01
+3.502900E+01,-5.310256E+01
+3.503700E+01,-5.197436E+01
+3.504500E+01,-4.721795E+01
+3.505300E+01,-3.814103E+01
+3.506100E+01,-3.139744E+01
+3.506900E+01,-3.080769E+01
+3.507700E+01,-3.289744E+01
+3.508500E+01,-3.410256E+01
+3.509300E+01,-3.158974E+01
+3.510100E+01,-2.946154E+01
+3.510900E+01,-2.957692E+01
+3.511700E+01,-2.902564E+01
+3.512500E+01,-2.848718E+01
+3.513300E+01,-2.753846E+01
+3.514100E+01,-2.842308E+01
+3.514900E+01,-3.153846E+01
+3.515700E+01,-3.360256E+01
+3.516500E+01,-3.553846E+01
+3.517300E+01,-3.582051E+01
+3.518100E+01,-3.402564E+01
+3.518900E+01,-3.123077E+01
+3.519700E+01,-2.720513E+01
+3.520500E+01,-2.664103E+01
+3.521300E+01,-2.893590E+01
+3.522100E+01,-3.025641E+01
+3.522900E+01,-2.938462E+01
+3.523700E+01,-2.594872E+01
+3.524500E+01,-2.502564E+01
+3.525300E+01,-2.674359E+01
+3.526100E+01,-2.789744E+01
+3.526900E+01,-2.916667E+01
+3.527700E+01,-2.878205E+01
+3.528500E+01,-2.729487E+01
+3.529300E+01,-2.351282E+01
+3.530100E+01,-1.638462E+01
+3.530900E+01,-9.641026E+00
+3.531700E+01,-2.294872E+00
+3.532500E+01,+5.692308E+00
+3.533300E+01,+1.298718E+01
+3.534100E+01,+1.782051E+01
+3.534900E+01,+1.502564E+01
+3.535700E+01,+3.025641E+00
+3.536500E+01,-1.194872E+01
+3.537300E+01,-2.357692E+01
+3.538100E+01,-2.753846E+01
+3.538900E+01,-3.074359E+01
+3.539700E+01,-3.521795E+01
+3.540500E+01,-3.907692E+01
+3.541300E+01,-3.488462E+01
+3.542100E+01,-2.664103E+01
+3.542900E+01,-2.732051E+01
+3.543700E+01,-4.419231E+01
+3.544500E+01,-5.867949E+01
+3.545300E+01,-2.320513E+01
+3.546100E+01,+8.232051E+01
+3.546900E+01,+2.069103E+02
+3.547700E+01,+2.566923E+02
+3.548500E+01,+1.827821E+02
+3.549300E+01,+4.084615E+01
+3.550100E+01,-6.976923E+01
+3.550900E+01,-1.006026E+02
+3.551700E+01,-7.744872E+01
+3.552500E+01,-5.146154E+01
+3.553300E+01,-4.117949E+01
+3.554100E+01,-3.758974E+01
+3.554900E+01,-3.185897E+01
+3.555700E+01,-2.303846E+01
+3.556500E+01,-1.850000E+01
+3.557300E+01,-1.932051E+01
+3.558100E+01,-1.983333E+01
+3.558900E+01,-1.632051E+01
+3.559700E+01,-8.500000E+00
+3.560500E+01,-3.000000E+00
+3.561300E+01,-6.666667E-01
+3.562100E+01,+2.628205E+00
+3.562900E+01,+5.371795E+00
+3.563700E+01,+7.923077E+00
+3.564500E+01,+1.101282E+01
+3.565300E+01,+1.778205E+01
+3.566100E+01,+3.044872E+01
+3.566900E+01,+4.224359E+01
+3.567700E+01,+5.102564E+01
+3.568500E+01,+6.047436E+01
+3.569300E+01,+7.270513E+01
+3.570100E+01,+8.797436E+01
+3.570900E+01,+9.816667E+01
+3.571700E+01,+1.048974E+02
+3.572500E+01,+1.070769E+02
+3.573300E+01,+1.074744E+02
+3.574100E+01,+1.032564E+02
+3.574900E+01,+9.375641E+01
+3.575700E+01,+8.067949E+01
+3.576500E+01,+6.484615E+01
+3.577300E+01,+4.901282E+01
+3.578100E+01,+3.083333E+01
+3.578900E+01,+1.146154E+01
+3.579700E+01,-4.423077E+00
+3.580500E+01,-1.614103E+01
+3.581300E+01,-2.339744E+01
+3.582100E+01,-3.014103E+01
+3.582900E+01,-3.765385E+01
+3.583700E+01,-4.334615E+01
+3.584500E+01,-4.746154E+01
+3.585300E+01,-4.778205E+01
+3.586100E+01,-4.546154E+01
+3.586900E+01,-4.326923E+01
+3.587700E+01,-4.038462E+01
+3.588500E+01,-3.761538E+01
+3.589300E+01,-3.391026E+01
+3.590100E+01,-3.129487E+01
+3.590900E+01,-3.276923E+01
+3.591700E+01,-3.452564E+01
+3.592500E+01,-3.517949E+01
+3.593300E+01,-3.464103E+01
+3.594100E+01,-3.417949E+01
+3.594900E+01,-3.480769E+01
+3.595700E+01,-3.224359E+01
+3.596500E+01,-2.798718E+01
+3.597300E+01,-2.583333E+01
+3.598100E+01,-2.711538E+01
+3.598900E+01,-3.242308E+01
+3.599700E+01,-3.643590E+01
+3.600500E+01,-3.719231E+01
+3.601300E+01,-3.502564E+01
+3.602100E+01,-2.910256E+01
+3.602900E+01,-2.638462E+01
+3.603700E+01,-2.475641E+01
+3.604500E+01,-2.853846E+01
+3.605300E+01,-3.079487E+01
+3.606100E+01,-3.196154E+01
+3.606900E+01,-3.119231E+01
+3.607700E+01,-2.958974E+01
+3.608500E+01,-2.924359E+01
+3.609300E+01,-2.782051E+01
+3.610100E+01,-2.729487E+01
+3.610900E+01,-2.892308E+01
+3.611700E+01,-3.219231E+01
+3.612500E+01,-3.500000E+01
+3.613300E+01,-3.162821E+01
+3.614100E+01,-2.482051E+01
+3.614900E+01,-2.050000E+01
+3.615700E+01,-2.061538E+01
+3.616500E+01,-2.369231E+01
+3.617300E+01,-2.229487E+01
+3.618100E+01,-1.541026E+01
+3.618900E+01,-6.500000E+00
+3.619700E+01,+2.833333E+00
+3.620500E+01,+9.320513E+00
+3.621300E+01,+1.280769E+01
+3.622100E+01,+1.105128E+01
+3.622900E+01,+2.089744E+00
+3.623700E+01,-9.641026E+00
+3.624500E+01,-2.144872E+01
+3.625300E+01,-2.965385E+01
+3.626100E+01,-3.378205E+01
+3.626900E+01,-3.601282E+01
+3.627700E+01,-3.537179E+01
+3.628500E+01,-3.434615E+01
+3.629300E+01,-3.211538E+01
+3.630100E+01,-2.820513E+01
+3.630900E+01,-2.934615E+01
+3.631700E+01,-4.125641E+01
+3.632500E+01,-5.650000E+01
+3.633300E+01,-3.835897E+01
+3.634100E+01,+4.824359E+01
+3.634900E+01,+1.760385E+02
+3.635700E+01,+1.979744E+02
+3.636500E+01,+1.053846E+02
+3.637300E+01,-4.283333E+01
+3.638100E+01,-1.011538E+02
+3.638100E+01,-1.035513E+02
+3.638900E+01,-7.850000E+01
+3.639700E+01,-6.234615E+01
+3.640500E+01,-4.623077E+01
+3.641300E+01,-3.992308E+01
+3.642100E+01,-3.487179E+01
+3.642900E+01,-2.729487E+01
+3.643700E+01,-1.964103E+01
+3.644500E+01,-1.620513E+01
+3.645300E+01,-1.666667E+01
+3.646100E+01,-1.958974E+01
+3.646900E+01,-1.962821E+01
+3.647700E+01,-1.407692E+01
+3.648500E+01,-6.666667E+00
+3.649300E+01,+5.641026E-01
+3.650100E+01,+4.910256E+00
+3.650900E+01,+7.666667E+00
+3.651700E+01,+1.243590E+01
+3.652500E+01,+1.805128E+01
+3.653300E+01,+2.456410E+01
+3.654100E+01,+3.110256E+01
+3.654900E+01,+3.884615E+01
+3.655700E+01,+5.078205E+01
+3.656500E+01,+6.383333E+01
+3.657300E+01,+7.666667E+01
+3.658100E+01,+8.767949E+01
+3.658900E+01,+9.560256E+01
+3.659700E+01,+1.021410E+02
+3.660500E+01,+1.058590E+02
+3.661300E+01,+1.073846E+02
+3.662100E+01,+1.062692E+02
+3.662900E+01,+9.948718E+01
+3.663700E+01,+8.832051E+01
+3.664500E+01,+7.276923E+01
+3.665300E+01,+5.535897E+01
+3.666100E+01,+3.874359E+01
+3.666900E+01,+2.147436E+01
+3.667700E+01,+4.807692E+00
+3.668500E+01,-1.508974E+01
+3.669300E+01,-2.960256E+01
+3.670100E+01,-3.875641E+01
+3.670900E+01,-4.155128E+01
+3.671700E+01,-4.475641E+01
+3.672500E+01,-4.880769E+01
+3.673300E+01,-4.916667E+01
+3.674100E+01,-4.573077E+01
+3.674900E+01,-3.973077E+01
+3.675700E+01,-3.585897E+01
+3.676500E+01,-3.737179E+01
+3.677300E+01,-3.969231E+01
+3.678100E+01,-4.046154E+01
+3.678900E+01,-3.864103E+01
+3.679700E+01,-3.656410E+01
+3.680500E+01,-3.784615E+01
+3.681300E+01,-3.921795E+01
+3.682100E+01,-3.944872E+01
+3.682900E+01,-3.788462E+01
+3.683700E+01,-3.525641E+01
+3.684500E+01,-3.420513E+01
+3.685300E+01,-3.201282E+01
+3.686100E+01,-2.914103E+01
+3.686900E+01,-2.896154E+01
+3.687700E+01,-3.208974E+01
+3.688500E+01,-3.751282E+01
+3.689300E+01,-3.864103E+01
+3.690100E+01,-3.475641E+01
+3.690900E+01,-3.111538E+01
+3.691700E+01,-3.015385E+01
+3.692500E+01,-3.287179E+01
+3.693300E+01,-3.450000E+01
+3.694100E+01,-3.320513E+01
+3.694900E+01,-3.182051E+01
+3.695700E+01,-2.984615E+01
+3.696500E+01,-2.903846E+01
+3.697300E+01,-2.958974E+01
+3.698100E+01,-3.210256E+01
+3.698900E+01,-3.685897E+01
+3.699700E+01,-3.842308E+01
+3.700500E+01,-3.614103E+01
+3.701300E+01,-3.192308E+01
+3.702100E+01,-2.847436E+01
+3.702900E+01,-2.787179E+01
+3.703700E+01,-2.679487E+01
+3.704500E+01,-2.658974E+01
+3.705300E+01,-2.466667E+01
+3.706100E+01,-2.253846E+01
+3.706900E+01,-1.946154E+01
+3.707700E+01,-1.652564E+01
+3.708500E+01,-1.434615E+01
+3.709300E+01,-9.743590E+00
+3.710100E+01,-3.012821E+00
+3.710900E+01,+6.192308E+00
+3.711700E+01,+1.591026E+01
+3.712500E+01,+2.098718E+01
+3.713300E+01,+2.028205E+01
+3.714100E+01,+1.134615E+01
+3.714900E+01,-3.333333E+00
+3.715700E+01,-1.765385E+01
+3.716500E+01,-2.824359E+01
+3.717300E+01,-3.151282E+01
+3.718100E+01,-3.037179E+01
+3.718900E+01,-2.870513E+01
+3.719700E+01,-2.834615E+01
+3.720500E+01,-2.979487E+01
+3.721300E+01,-2.826923E+01
+3.722100E+01,-2.742308E+01
+3.722900E+01,-3.784615E+01
+3.723700E+01,-5.733333E+01
+3.724500E+01,-5.603846E+01
+3.725300E+01,+1.012821E+01
+3.726100E+01,+1.373205E+02
+3.726900E+01,+2.470128E+02
+3.727700E+01,+2.509744E+02
+3.728500E+01,+1.383718E+02
+3.729300E+01,-6.128205E+00
+3.730100E+01,-9.014103E+01
+3.730900E+01,-9.557692E+01
+3.731700E+01,-6.407692E+01
+3.732500E+01,-4.033333E+01
+3.733300E+01,-3.316667E+01
+3.734100E+01,-3.034615E+01
+3.734900E+01,-2.600000E+01
+3.735700E+01,-2.060256E+01
+3.736500E+01,-1.673077E+01
+3.737300E+01,-1.123077E+01
+3.738100E+01,-6.089744E+00
+3.738900E+01,-3.679487E+00
+3.739700E+01,-4.589744E+00
+3.740500E+01,-4.846154E+00
+3.741300E+01,+7.307692E-01
+3.742100E+01,+8.141026E+00
+3.742900E+01,+1.425641E+01
+3.743700E+01,+1.782051E+01
+3.744500E+01,+1.983333E+01
+3.745300E+01,+2.524359E+01
+3.746100E+01,+3.384615E+01
+3.746100E+01,+4.182051E+01
+3.746900E+01,+5.057692E+01
+3.747700E+01,+6.033333E+01
+3.748500E+01,+7.389744E+01
+3.749300E+01,+8.700000E+01
+3.750100E+01,+9.703846E+01
+3.750900E+01,+1.037949E+02
+3.751700E+01,+1.087179E+02
+3.752500E+01,+1.104487E+02
+3.753300E+01,+1.100128E+02
+3.754100E+01,+1.056154E+02
+3.754900E+01,+9.734615E+01
+3.755700E+01,+8.765385E+01
+3.756500E+01,+7.430769E+01
+3.757300E+01,+5.703846E+01
+3.758100E+01,+3.561538E+01
+3.758900E+01,+1.315385E+01
+3.759700E+01,-4.320513E+00
+3.760500E+01,-1.770513E+01
+3.761300E+01,-2.728205E+01
+3.762100E+01,-3.367949E+01
+3.762900E+01,-3.870513E+01
+3.763700E+01,-4.176923E+01
+3.764500E+01,-4.560256E+01
+3.765300E+01,-4.925641E+01
+3.766100E+01,-5.117949E+01
+3.766900E+01,-5.217949E+01
+3.767700E+01,-4.997436E+01
+3.768500E+01,-4.688462E+01
+3.769300E+01,-4.457692E+01
+3.770100E+01,-4.553846E+01
+3.770900E+01,-4.569231E+01
+3.771700E+01,-4.096154E+01
+3.772500E+01,-3.535897E+01
+3.773300E+01,-3.408974E+01
+3.774100E+01,-3.982051E+01
+3.774900E+01,-4.528205E+01
+3.775700E+01,-4.484615E+01
+3.776500E+01,-3.983333E+01
+3.777300E+01,-3.402564E+01
+3.778100E+01,-3.285897E+01
+3.778900E+01,-3.455128E+01
+3.779700E+01,-3.521795E+01
+3.780500E+01,-3.455128E+01
+3.781300E+01,-3.179487E+01
+3.782100E+01,-3.038462E+01
+3.782900E+01,-3.115385E+01
+3.783700E+01,-3.280769E+01
+3.784500E+01,-3.558974E+01
+3.785300E+01,-3.625641E+01
+3.786100E+01,-3.505128E+01
+3.786900E+01,-3.264103E+01
+3.787700E+01,-2.953846E+01
+3.788500E+01,-2.928205E+01
+3.789300E+01,-3.006410E+01
+3.790100E+01,-3.110256E+01
+3.790900E+01,-3.138462E+01
+3.791700E+01,-2.928205E+01
+3.792500E+01,-2.824359E+01
+3.793300E+01,-2.793590E+01
+3.794100E+01,-2.783333E+01
+3.794900E+01,-2.820513E+01
+3.795700E+01,-2.719231E+01
+3.796500E+01,-2.693590E+01
+3.797300E+01,-2.620513E+01
+3.798100E+01,-2.510256E+01
+3.798900E+01,-2.684615E+01
+3.798900E+01,-2.843590E+01
+3.799700E+01,-3.221795E+01
+3.800500E+01,-3.197436E+01
+3.801300E+01,-2.934615E+01
+3.802100E+01,-2.267949E+01
+3.802900E+01,-1.683333E+01
+3.803700E+01,-1.062821E+01
+3.804500E+01,-4.666667E+00
+3.805300E+01,+5.166667E+00
+3.806100E+01,+1.492308E+01
+3.806900E+01,+2.338462E+01
+3.807700E+01,+2.700000E+01
+3.808500E+01,+2.292308E+01
+3.809300E+01,+1.297436E+01
+3.810100E+01,-2.256410E+00
+3.810900E+01,-1.732051E+01
+3.811700E+01,-2.830769E+01
+3.812500E+01,-3.446154E+01
+3.813300E+01,-3.423077E+01
+3.814100E+01,-3.169231E+01
+3.814900E+01,-2.839744E+01
+3.815700E+01,-2.398718E+01
+3.816500E+01,-2.053846E+01
+3.817300E+01,-2.079487E+01
+3.818100E+01,-3.434615E+01
+3.818900E+01,-5.826923E+01
+3.819700E+01,-5.934615E+01
+3.820500E+01,+4.794872E+00
+3.821300E+01,+1.350385E+02
+3.822100E+01,+2.520000E+02
+3.822900E+01,+2.592949E+02
+3.823700E+01,+1.450769E+02
+3.824500E+01,-5.384615E+00
+3.825300E+01,-9.255128E+01
+3.826100E+01,-9.589744E+01
+3.826900E+01,-6.301282E+01
+3.827700E+01,-3.789744E+01
+3.828500E+01,-3.141026E+01
+3.829300E+01,-2.987179E+01
+3.830100E+01,-2.482051E+01
+3.830900E+01,-1.855128E+01
+3.831700E+01,-1.265385E+01
+3.832500E+01,-1.012821E+01
+3.833300E+01,-8.294872E+00
+3.834100E+01,-4.333333E+00
+3.834900E+01,-1.782051E+00
+3.835700E+01,+1.435897E+00
+3.836500E+01,+2.923077E+00
+3.837300E+01,+7.782051E+00
+3.838100E+01,+1.269231E+01
+3.838900E+01,+1.861538E+01
+3.839700E+01,+2.485897E+01
+3.840500E+01,+3.141026E+01
+3.841300E+01,+4.106410E+01
+3.842100E+01,+5.394872E+01
+3.842900E+01,+7.103846E+01
+3.843700E+01,+8.752564E+01
+3.844500E+01,+9.810256E+01
+3.845300E+01,+1.048333E+02
+3.846100E+01,+1.094615E+02
+3.846900E+01,+1.146538E+02
+3.847700E+01,+1.192949E+02
+3.848500E+01,+1.206026E+02
+3.849300E+01,+1.195513E+02
+3.850100E+01,+1.120897E+02
+3.850900E+01,+9.720513E+01
+3.851700E+01,+7.779487E+01
+3.852500E+01,+5.596154E+01
+3.853300E+01,+3.551282E+01
+3.854100E+01,+1.482051E+01
+3.854900E+01,-4.423077E+00
+3.855700E+01,-1.776923E+01
+3.856500E+01,-2.651282E+01
+3.857300E+01,-3.180769E+01
+3.858100E+01,-3.787179E+01
+3.858900E+01,-4.478205E+01
+3.859700E+01,-4.857692E+01
+3.860500E+01,-5.057692E+01
+3.861300E+01,-5.055128E+01
+3.862100E+01,-5.003846E+01
+3.862900E+01,-4.946154E+01
+3.863700E+01,-4.655128E+01
+3.864500E+01,-4.367949E+01
+3.865300E+01,-4.061538E+01
+3.866100E+01,-3.783333E+01
+3.866900E+01,-3.696154E+01
+3.867700E+01,-3.615385E+01
+3.868500E+01,-3.669231E+01
+3.869300E+01,-3.373077E+01
+3.870100E+01,-3.012821E+01
+3.870900E+01,-2.606410E+01
+3.871700E+01,-2.466667E+01
+3.872500E+01,-2.605128E+01
+3.873300E+01,-2.712821E+01
+3.874100E+01,-2.901282E+01
+3.874900E+01,-3.055128E+01
+3.875700E+01,-3.234615E+01
+3.876500E+01,-3.274359E+01
+3.877300E+01,-2.979487E+01
+3.878100E+01,-2.842308E+01
+3.878900E+01,-2.956410E+01
+3.879700E+01,-3.166667E+01
+3.880500E+01,-3.291026E+01
+3.881300E+01,-3.132051E+01
+3.882100E+01,-2.988462E+01
+3.882900E+01,-2.808974E+01
+3.883700E+01,-2.605128E+01
+3.884500E+01,-2.617949E+01
+3.885300E+01,-2.707692E+01
+3.886100E+01,-2.925641E+01
+3.886900E+01,-3.115385E+01
+3.887700E+01,-3.117949E+01
+3.888500E+01,-3.071795E+01
+3.889300E+01,-2.852564E+01
+3.890100E+01,-2.691026E+01
+3.890900E+01,-2.621795E+01
+3.891700E+01,-2.478205E+01
+3.892500E+01,-2.442308E+01
+3.893300E+01,-2.347436E+01
+3.894100E+01,-2.187179E+01
+3.894900E+01,-2.070513E+01
+3.895700E+01,-1.903846E+01
+3.896500E+01,-1.735897E+01
+3.897300E+01,-1.158974E+01
+3.898100E+01,-2.717949E+00
+3.898900E+01,+4.294872E+00
+3.899700E+01,+9.974359E+00
+3.900500E+01,+1.375641E+01
+3.901300E+01,+1.484615E+01
+3.902100E+01,+2.371795E+00
+3.902900E+01,-1.398718E+01
+3.903700E+01,-2.734615E+01
+3.904500E+01,-3.038462E+01
+3.905300E+01,-3.061538E+01
+3.906100E+01,-3.151282E+01
+3.906900E+01,-3.152564E+01
+3.907700E+01,-3.052564E+01
+3.908500E+01,-2.744872E+01
+3.909300E+01,-2.391026E+01
+3.910100E+01,-3.083333E+01
+3.910900E+01,-4.873077E+01
+3.911700E+01,-5.153846E+01
+3.912500E+01,+3.512821E+00
+3.913300E+01,+1.222179E+02
+3.914100E+01,+2.326923E+02
+3.914900E+01,+2.436538E+02
+3.915700E+01,+1.375385E+02
+3.916500E+01,-8.179487E+00
+3.917300E+01,-9.812821E+01
+3.918100E+01,-1.081154E+02
+3.918900E+01,-7.538462E+01
+3.919700E+01,-4.226923E+01
+3.920500E+01,-2.576923E+01
+3.921300E+01,-1.989744E+01
+3.922100E+01,-1.873077E+01
+3.922900E+01,-1.743590E+01
+3.923700E+01,-1.364103E+01
+3.924500E+01,-1.073077E+01
+3.925300E+01,-8.076923E+00
+3.926100E+01,-6.474359E+00
+3.926900E+01,-6.589744E+00
+3.927700E+01,-5.807692E+00
+3.928500E+01,-3.192308E+00
+3.929300E+01,+3.769231E+00
+3.930100E+01,+1.182051E+01
+3.930900E+01,+1.706410E+01
+3.931700E+01,+2.238462E+01
+3.932500E+01,+2.914103E+01
+3.933300E+01,+3.965385E+01
+3.934100E+01,+5.244872E+01
+3.934900E+01,+6.885897E+01
+3.935700E+01,+8.585897E+01
+3.936500E+01,+1.015000E+02
+3.937300E+01,+1.140000E+02
+3.938100E+01,+1.222179E+02
+3.938900E+01,+1.260513E+02
+3.939700E+01,+1.252949E+02
+3.940500E+01,+1.228718E+02
+3.941300E+01,+1.202821E+02
+3.942100E+01,+1.129231E+02
+3.942900E+01,+1.002949E+02
+3.943700E+01,+8.170513E+01
+3.944500E+01,+5.837179E+01
+3.945300E+01,+3.366667E+01
+3.946100E+01,+8.756410E+00
+3.946900E+01,-1.041026E+01
+3.947700E+01,-2.215385E+01
+3.948500E+01,-2.984615E+01
+3.949300E+01,-3.542308E+01
+3.950100E+01,-4.241026E+01
+3.950900E+01,-4.882051E+01
+3.951700E+01,-5.315385E+01
+3.952500E+01,-5.496154E+01
+3.953300E+01,-5.133333E+01
+3.954100E+01,-4.533333E+01
+3.954900E+01,-4.033333E+01
+3.955700E+01,-3.853846E+01
+3.956500E+01,-4.005128E+01
+3.957300E+01,-4.010256E+01
+3.958100E+01,-3.905128E+01
+3.958900E+01,-3.741026E+01
+3.959700E+01,-3.344872E+01
+3.960500E+01,-2.929487E+01
+3.961300E+01,-2.582051E+01
+3.962100E+01,-2.647436E+01
+3.962900E+01,-3.042308E+01
+3.963700E+01,-3.221795E+01
+3.964500E+01,-3.193590E+01
+3.965300E+01,-3.041026E+01
+3.966100E+01,-3.025641E+01
+3.966900E+01,-3.235897E+01
+3.967700E+01,-3.343590E+01
+3.968500E+01,-3.402564E+01
+3.969300E+01,-3.144872E+01
+3.970100E+01,-2.987179E+01
+3.970900E+01,-2.946154E+01
+3.971700E+01,-3.052564E+01
+3.972500E+01,-3.117949E+01
+3.973300E+01,-3.124359E+01
+3.974100E+01,-3.435897E+01
+3.974900E+01,-3.719231E+01
+3.975700E+01,-3.632051E+01
+3.976500E+01,-3.134615E+01
+3.977300E+01,-2.602564E+01
+3.978100E+01,-2.651282E+01
+3.978900E+01,-2.865385E+01
+3.979700E+01,-2.741026E+01
+3.980500E+01,-2.178205E+01
+3.981300E+01,-1.280769E+01
+3.982100E+01,-6.038462E+00
+3.982900E+01,-1.000000E+00
+3.983700E+01,+3.794872E+00
+3.984500E+01,+8.243590E+00
+3.985300E+01,+1.273077E+01
+3.986100E+01,+1.148718E+01
+3.986900E+01,+3.371795E+00
+3.987700E+01,-8.012821E+00
+3.988500E+01,-1.875641E+01
+3.989300E+01,-2.488462E+01
+3.990100E+01,-3.003846E+01
+3.990900E+01,-3.447436E+01
+3.991700E+01,-3.597436E+01
+3.992500E+01,-3.524359E+01
+3.993300E+01,-3.066667E+01
+3.994100E+01,-2.600000E+01
+3.994900E+01,-2.732051E+01
+3.995700E+01,-4.055128E+01
+3.996500E+01,-5.701282E+01
+3.997300E+01,-3.516667E+01
+3.998100E+01,+5.666667E+01
+3.998900E+01,+1.850769E+02
+3.999700E+01,+2.565256E+02
+4.000500E+01,+2.033333E+02
+4.001300E+01,+5.470513E+01
+4.002100E+01,-5.667949E+01
+4.002900E+01,-9.132051E+01
+4.003700E+01,-6.084615E+01
+4.004500E+01,-4.030769E+01
+4.005300E+01,-2.842308E+01
+4.006100E+01,-2.116667E+01
+4.006900E+01,-1.652564E+01
+4.007700E+01,-1.508974E+01
+4.008500E+01,-1.410256E+01
+4.009300E+01,-1.169231E+01
+4.010100E+01,-9.910256E+00
+4.010900E+01,-7.833333E+00
+4.011700E+01,-6.294872E+00
+4.012500E+01,-3.935897E+00
+4.013300E+01,+9.102564E-01
+4.014100E+01,+5.551282E+00
+4.014900E+01,+1.125641E+01
+4.015700E+01,+1.812821E+01
+4.016500E+01,+2.492308E+01
+4.017300E+01,+3.207692E+01
+4.018100E+01,+3.830769E+01
+4.018900E+01,+4.666667E+01
+4.019700E+01,+5.778205E+01
+4.020500E+01,+6.962821E+01
+4.021300E+01,+8.273077E+01
+4.022100E+01,+9.444872E+01
+4.022900E+01,+1.036923E+02
+4.023700E+01,+1.107821E+02
+4.024500E+01,+1.149615E+02
+4.025300E+01,+1.173718E+02
+4.026100E+01,+1.144231E+02
+4.026900E+01,+1.052308E+02
+4.027700E+01,+9.270513E+01
+4.028500E+01,+7.666667E+01
+4.029300E+01,+5.898718E+01
+4.030100E+01,+3.938462E+01
+4.030900E+01,+1.926923E+01
+4.031700E+01,+2.012821E+00
+4.032500E+01,-1.380769E+01
+4.033300E+01,-2.660256E+01
+4.034100E+01,-3.684615E+01
+4.034900E+01,-4.680769E+01
+4.035700E+01,-5.157692E+01
+4.036500E+01,-5.367949E+01
+4.037300E+01,-5.033333E+01
+4.038100E+01,-5.003846E+01
+4.038900E+01,-5.128205E+01
+4.039700E+01,-5.289744E+01
+4.040500E+01,-5.175641E+01
+4.041300E+01,-4.710256E+01
+4.042100E+01,-4.256410E+01
+4.042900E+01,-3.829487E+01
+4.043700E+01,-3.566667E+01
+4.044500E+01,-3.373077E+01
+4.045300E+01,-3.097436E+01
+4.046100E+01,-2.951282E+01
+4.046900E+01,-2.815385E+01
+4.047700E+01,-2.748718E+01
+4.048500E+01,-2.726923E+01
+4.049300E+01,-2.480769E+01
+4.050100E+01,-2.294872E+01
+4.050900E+01,-2.285897E+01
+4.051700E+01,-2.620513E+01
+4.052500E+01,-3.179487E+01
+4.053300E+01,-3.479487E+01
+4.054100E+01,-3.684615E+01
+4.054900E+01,-3.842308E+01
+4.055700E+01,-3.887179E+01
+4.056500E+01,-3.812821E+01
+4.057300E+01,-3.442308E+01
+4.058100E+01,-3.246154E+01
+4.058900E+01,-3.375641E+01
+4.059700E+01,-3.582051E+01
+4.060500E+01,-3.684615E+01
+4.061300E+01,-3.379487E+01
+4.062100E+01,-3.053846E+01
+4.062900E+01,-3.006410E+01
+4.063700E+01,-3.116667E+01
+4.064500E+01,-3.261538E+01
+4.065300E+01,-3.066667E+01
+4.066100E+01,-2.764103E+01
+4.066900E+01,-2.714103E+01
+4.067700E+01,-2.791026E+01
+4.068500E+01,-2.732051E+01
+4.069300E+01,-2.178205E+01
+4.070100E+01,-1.473077E+01
+4.070900E+01,-6.500000E+00
+4.071700E+01,+1.628205E+00
+4.072500E+01,+8.525641E+00
+4.073300E+01,+1.339744E+01
+4.074100E+01,+1.553846E+01
+4.074900E+01,+1.675641E+01
+4.075700E+01,+1.271795E+01
+4.076500E+01,+2.397436E+00
+4.077300E+01,-9.089744E+00
+4.078100E+01,-1.830769E+01
+4.078900E+01,-2.296154E+01
+4.079700E+01,-2.660256E+01
+4.080500E+01,-3.050000E+01
+4.081300E+01,-3.291026E+01
+4.082100E+01,-3.391026E+01
+4.082900E+01,-3.125641E+01
+4.083700E+01,-2.898718E+01
+4.084500E+01,-3.598718E+01
+4.085300E+01,-5.115385E+01
+4.086100E+01,-4.917949E+01
+4.086900E+01,+1.357692E+01
+4.087700E+01,+1.395256E+02
+4.088500E+01,+2.548974E+02
+4.089300E+01,+2.660128E+02
+4.090100E+01,+1.539231E+02
+4.090900E+01,+3.025641E+00
+4.091700E+01,-8.762821E+01
+4.092500E+01,-9.596154E+01
+4.093300E+01,-6.511538E+01
+4.094100E+01,-4.039744E+01
+4.094900E+01,-3.028205E+01
+4.095700E+01,-2.543590E+01
+4.096500E+01,-2.417949E+01
+4.097300E+01,-2.394872E+01
+4.098100E+01,-2.230769E+01
+4.098900E+01,-1.828205E+01
+4.099700E+01,-1.278205E+01
+4.100500E+01,-9.769231E+00
+4.101300E+01,-6.256410E+00
+4.102100E+01,-5.448718E+00
+4.102900E+01,-1.512821E+00
+4.103700E+01,+5.858974E+00
+4.104500E+01,+1.700000E+01
+4.105300E+01,+2.676923E+01
+4.106100E+01,+3.106410E+01
+4.106900E+01,+3.466667E+01
+4.107700E+01,+4.070513E+01
+4.108500E+01,+5.073077E+01
+4.109300E+01,+6.264103E+01
+4.110100E+01,+7.348718E+01
+4.110900E+01,+8.523077E+01
+4.111700E+01,+9.617949E+01
+4.112500E+01,+1.034359E+02
+4.113300E+01,+1.063077E+02
+4.114100E+01,+1.041923E+02
+4.114900E+01,+1.003590E+02
+4.115700E+01,+9.825641E+01
+4.116500E+01,+9.738462E+01
+4.117300E+01,+8.911538E+01
+4.118100E+01,+6.929487E+01
+4.118900E+01,+5.953846E+01
+4.119700E+01,+7.847436E+01
+4.120500E+01,+1.002436E+02
+4.121300E+01,+7.570513E+01
+4.122100E+01,-3.628205E+00
+4.122900E+01,-8.216667E+01
+4.123700E+01,-1.060897E+02
+4.124500E+01,-8.679487E+01
+4.125300E+01,-6.575641E+01
+4.126100E+01,-6.121795E+01
+4.126900E+01,-6.023077E+01
+4.127700E+01,-4.680769E+01
+4.128500E+01,-2.935897E+01
+4.129300E+01,-1.815385E+01
+4.130100E+01,-1.744872E+01
+4.130900E+01,-2.565385E+01
+4.131700E+01,-3.360256E+01
+4.132500E+01,-4.461538E+01
+4.133300E+01,-6.085897E+01
+4.134100E+01,-7.676923E+01
+4.134900E+01,-7.108974E+01
+4.135700E+01,-5.293590E+01
+4.136500E+01,-2.856410E+01
+4.137300E+01,-1.562821E+01
+4.138100E+01,-1.733333E+01
+4.138900E+01,-3.282051E+01
+4.139700E+01,-5.158974E+01
+4.140500E+01,-5.475641E+01
+4.141300E+01,-4.615385E+01
+4.142100E+01,-4.603846E+01
+4.142900E+01,-5.424359E+01
+4.143700E+01,-5.461538E+01
+4.144500E+01,-3.419231E+01
+4.145300E+01,-7.820513E+00
+4.146100E+01,+7.948718E-01
+4.146900E+01,-6.435897E+00
+4.147700E+01,-1.550000E+01
+4.148500E+01,-2.062821E+01
+4.149300E+01,-2.911538E+01
+4.150100E+01,-4.583333E+01
+4.150900E+01,-6.133333E+01
+4.151700E+01,-6.664103E+01
+4.152500E+01,-6.098718E+01
+4.153300E+01,-5.001282E+01
+4.154100E+01,-4.030769E+01
+4.154900E+01,-3.089744E+01
+4.155700E+01,-2.178205E+01
+4.156500E+01,-1.957692E+01
+4.157300E+01,-2.376923E+01
+4.158100E+01,-2.365385E+01
+4.158900E+01,-8.692308E+00
+4.159700E+01,+8.448718E+00
+4.160500E+01,-7.435897E-01
+4.161300E+01,-3.797436E+01
+4.162100E+01,-7.539744E+01
+4.162900E+01,-8.255128E+01
+4.163700E+01,-5.885897E+01
+4.164500E+01,-2.806410E+01
+4.165300E+01,+1.025641E-01
+4.166100E+01,+2.485897E+01
+4.166900E+01,+4.080769E+01
+4.166900E+01,+4.842308E+01
+4.167700E+01,+3.142308E+01
+4.168500E+01,-3.333333E+00
+4.169300E+01,-2.250000E+01
+4.170100E+01,-1.264103E+01
+4.170900E+01,+1.782051E+01
+4.171700E+01,+2.783333E+01
+4.172500E+01,+2.266667E+01
+4.173300E+01,+1.279487E+01
+4.174100E+01,+3.269231E+00
+4.174900E+01,+9.230769E-01
+4.175700E+01,+4.115385E+00
+4.176500E+01,-2.423077E+00
+4.177300E+01,-3.217949E+01
+4.178100E+01,-7.288462E+01
+4.178900E+01,-9.133333E+01
+4.179700E+01,-7.630769E+01
+4.180500E+01,-5.026923E+01
+4.181300E+01,-3.805128E+01
+4.182100E+01,-3.524359E+01
+4.182900E+01,+4.179487E+00
+4.183700E+01,+1.119744E+02
+4.184500E+01,+2.461538E+02
+4.185300E+01,+3.096410E+02
+4.186100E+01,+2.372949E+02
+4.186900E+01,+7.819231E+01
+4.187700E+01,-5.853846E+01
+4.188500E+01,-1.123205E+02
+4.189300E+01,-9.839744E+01
+4.190100E+01,-6.352564E+01
+4.190900E+01,-3.414103E+01
+4.191700E+01,-2.080769E+01
+4.191700E+01,-1.753846E+01
+4.192500E+01,-2.265385E+01
+4.193300E+01,-2.291026E+01
+4.194100E+01,-1.696154E+01
+4.194900E+01,-4.153846E+00
+4.195700E+01,+7.794872E+00
+4.196500E+01,+1.148718E+01
+4.197300E+01,+6.179487E+00
+4.198100E+01,-1.078205E+01
+4.198900E+01,-3.288462E+01
+4.199700E+01,-4.364103E+01
+4.200500E+01,-3.576923E+01
+4.201300E+01,+6.256410E+00
+4.202100E+01,+4.915385E+01
+4.202900E+01,+7.544872E+01
+4.203700E+01,+6.538462E+01
+4.204500E+01,+4.806410E+01
+4.205300E+01,+4.434615E+01
+4.206100E+01,+5.823077E+01
+4.206900E+01,+8.151282E+01
+4.207700E+01,+1.012821E+02
+4.208500E+01,+1.122436E+02
+4.209300E+01,+1.085897E+02
+4.210100E+01,+9.982051E+01
+4.210900E+01,+1.117308E+02
+4.211700E+01,+1.457692E+02
+4.212500E+01,+1.672436E+02
+4.213300E+01,+1.382949E+02
+4.214100E+01,+7.483333E+01
+4.214900E+01,+3.023077E+01
+4.215700E+01,+1.919231E+01
+4.216500E+01,+1.426923E+01
+4.217300E+01,-4.730769E+00
+4.218100E+01,-2.552564E+01
+4.218900E+01,-2.747436E+01
+4.219700E+01,-1.547436E+01
+4.220500E+01,-7.192308E+00
+4.221300E+01,-1.238462E+01
+4.222100E+01,-3.005128E+01
+4.222900E+01,-4.938462E+01
+4.223700E+01,-6.096154E+01
+4.224500E+01,-5.882051E+01
+4.225300E+01,-4.515385E+01
+4.226100E+01,-3.176923E+01
+4.226900E+01,-3.023077E+01
+4.227700E+01,-4.735897E+01
+4.228500E+01,-6.935897E+01
+4.229300E+01,-6.914103E+01
+4.230100E+01,-4.174359E+01
+4.230900E+01,-1.292308E+01
+4.231700E+01,-9.692308E+00
+4.232500E+01,-2.512821E+01
+4.233300E+01,-2.973077E+01
+4.234100E+01,-1.541026E+01
+4.234900E+01,-1.357692E+01
+4.235700E+01,-2.520513E+01
+4.236500E+01,-4.470513E+01
+4.237300E+01,-4.601282E+01
+4.238100E+01,-4.064103E+01
+4.238900E+01,-3.567949E+01
+4.238900E+01,-3.383333E+01
+4.239700E+01,-3.338462E+01
+4.240500E+01,-3.267949E+01
+4.241300E+01,-2.773077E+01
+4.242100E+01,-2.480769E+01
+4.242900E+01,-2.643590E+01
+4.243700E+01,-3.421795E+01
+4.244500E+01,-4.083333E+01
+4.245300E+01,-4.123077E+01
+4.246100E+01,-4.091026E+01
+4.246900E+01,-4.138462E+01
+4.247700E+01,-3.473077E+01
+4.248500E+01,-8.666667E+00
+4.249300E+01,+2.576923E+01
+4.250100E+01,+3.643590E+01
+4.250900E+01,+1.385897E+01
+4.251700E+01,-2.144872E+01
+4.252500E+01,-4.661538E+01
+4.253300E+01,-6.052564E+01
+4.254100E+01,-7.020513E+01
+4.254900E+01,-6.405128E+01
+4.255700E+01,-3.705128E+01
+4.256500E+01,-1.153846E+01
+4.257300E+01,-1.248718E+01
+4.258100E+01,-2.891026E+01
+4.258900E+01,-2.455128E+01
+4.259700E+01,+1.756410E+00
+4.260500E+01,+1.805128E+01
+4.261300E+01,+1.075641E+01
+4.262100E+01,-3.756410E+00
+4.262900E+01,-8.820513E+00
+4.263700E+01,-9.717949E+00
+4.264500E+01,-1.224359E+01
+4.265300E+01,-6.538462E+00
+4.266100E+01,+1.233333E+01
+4.266900E+01,+3.203846E+01
+4.267700E+01,+3.253846E+01
+4.268500E+01,+1.152564E+01
+4.269300E+01,+1.346154E+00
+4.270100E+01,+6.576923E+00
+4.270900E+01,+1.517949E+01
+4.271700E+01,-3.448718E+00
+4.272500E+01,-3.361538E+01
+4.273300E+01,-5.279487E+01
+4.274100E+01,-5.648718E+01
+4.274900E+01,-5.239744E+01
+4.275700E+01,-4.502564E+01
+4.276500E+01,-4.123077E+01
+4.277300E+01,-4.234615E+01
+4.278100E+01,-6.333333E+00
+4.278900E+01,+1.113846E+02
+4.279700E+01,+2.682949E+02
+4.280500E+01,+3.400897E+02
+4.281300E+01,+2.522436E+02
+4.282100E+01,+7.482051E+01
+4.282900E+01,-6.157692E+01
+4.283700E+01,-1.054231E+02
+4.284500E+01,-9.916667E+01
+4.285300E+01,-8.844872E+01
+4.286100E+01,-7.375641E+01
+4.286900E+01,-4.556410E+01
+4.287700E+01,-1.267949E+01
+4.288500E+01,+1.032051E+01
+4.289300E+01,+1.574359E+01
+4.290100E+01,+1.589744E+00
+4.290900E+01,-1.833333E+01
+4.291700E+01,-2.492308E+01
+4.292500E+01,-1.769231E+01
+4.293300E+01,-1.070513E+01
+4.294100E+01,-1.475641E+01
+4.294900E+01,-2.230769E+01
+4.295700E+01,-2.396154E+01
+4.296500E+01,-2.134615E+01
+4.297300E+01,-1.106410E+01
+4.298100E+01,+1.319231E+01
+4.298900E+01,+4.939744E+01
+4.299700E+01,+8.076923E+01
+4.300500E+01,+9.180769E+01
+4.301300E+01,+7.798718E+01
+4.302100E+01,+6.341026E+01
+4.302900E+01,+6.134615E+01
+4.303700E+01,+7.505128E+01
+4.304500E+01,+8.730769E+01
+4.305300E+01,+9.905128E+01
+4.306100E+01,+1.200256E+02
+4.306900E+01,+1.436282E+02
+4.307700E+01,+1.441795E+02
+4.308500E+01,+1.187821E+02
+4.309300E+01,+8.562821E+01
+4.310100E+01,+5.973077E+01
+4.310900E+01,+3.950000E+01
+4.311700E+01,+1.105128E+01
+4.312500E+01,-2.029487E+01
+4.313300E+01,-4.183333E+01
+4.314100E+01,-5.055128E+01
+4.314900E+01,-4.942308E+01
+4.315700E+01,-4.820513E+01
+4.316500E+01,-4.669231E+01
+4.317300E+01,-4.491026E+01
+4.318100E+01,-4.857692E+01
+4.318900E+01,-5.708974E+01
+4.319700E+01,-6.600000E+01
+4.320500E+01,-6.387179E+01
+4.321300E+01,-5.356410E+01
+4.322100E+01,-4.910256E+01
+4.322900E+01,-4.565385E+01
+4.323700E+01,-3.379487E+01
+4.324500E+01,-1.880769E+01
+4.325300E+01,-2.067949E+01
+4.326100E+01,-4.475641E+01
+4.326900E+01,-6.715385E+01
+4.327700E+01,-7.162821E+01
+4.328500E+01,-6.367949E+01
+4.329300E+01,-5.728205E+01
+4.330100E+01,-5.679487E+01
+4.330900E+01,-5.150000E+01
+4.331700E+01,-3.615385E+01
+4.332500E+01,-1.284615E+01
+4.333300E+01,+9.320513E+00
+4.334100E+01,+7.474359E+00
+4.334900E+01,-2.543590E+01
+4.335700E+01,-4.847436E+01
+4.336500E+01,-5.225641E+01
+4.337300E+01,-4.655128E+01
+4.338100E+01,-6.332051E+01
+4.338900E+01,-6.901282E+01
+4.339700E+01,-4.871795E+01
+4.340500E+01,-2.462821E+01
+4.341300E+01,-1.746154E+01
+4.342100E+01,-1.307692E+01
+4.342900E+01,-1.038462E+00
+4.343700E+01,-6.910256E+00
+4.344500E+01,-4.591026E+01
+4.345300E+01,-8.738462E+01
+4.346100E+01,-8.985897E+01
+4.346900E+01,-5.853846E+01
+4.347700E+01,-3.185897E+01
+4.348500E+01,-2.389744E+01
+4.349300E+01,-1.844872E+01
+4.350100E+01,-6.384615E+00
+4.350900E+01,-6.538462E-01
+4.351700E+01,-1.357692E+01
+4.352500E+01,-3.589744E+01
+4.353300E+01,-4.858974E+01
+4.354100E+01,-5.098718E+01
+4.354900E+01,-5.442308E+01
+4.355700E+01,-5.798718E+01
+4.356500E+01,-4.738462E+01
+4.357300E+01,-1.526923E+01
+4.358100E+01,+1.844872E+01
+4.358900E+01,+3.342308E+01
+4.359700E+01,+3.076923E+01
+4.360500E+01,+2.212821E+01
+4.361300E+01,+1.769231E+01
+4.362100E+01,+1.512821E+01
+4.362900E+01,+1.160256E+01
+4.363700E+01,+5.397436E+00
+4.364500E+01,-9.705128E+00
+4.365300E+01,-2.941026E+01
+4.366100E+01,-4.044872E+01
+4.366900E+01,-3.093590E+01
+4.367700E+01,-1.857692E+01
+4.368500E+01,-1.946154E+01
+4.369300E+01,-2.996154E+01
+4.370100E+01,-3.698718E+01
+4.370900E+01,-4.511538E+01
+4.371700E+01,-6.884615E+01
+4.372500E+01,-8.376923E+01
+4.373300E+01,-3.667949E+01
+4.374100E+01,+9.394872E+01
+4.374900E+01,+2.484103E+02
+4.375700E+01,+3.131667E+02
+4.376500E+01,+2.338205E+02
+4.377300E+01,+7.283333E+01
+4.378100E+01,-5.273077E+01
+4.378900E+01,-8.300000E+01
+4.379700E+01,-6.091026E+01
+4.380500E+01,-5.365385E+01
+4.381300E+01,-7.779487E+01
+4.382100E+01,-1.004615E+02
+4.382900E+01,-8.942308E+01
+4.383700E+01,-5.555128E+01
+4.384500E+01,-2.141026E+01
+4.385300E+01,+4.576923E+00
+4.386100E+01,+2.144872E+01
+4.386900E+01,+2.387179E+01
+4.387700E+01,+1.871795E+00
+4.388500E+01,-2.870513E+01
+4.389300E+01,-4.070513E+01
+4.390100E+01,-3.003846E+01
+4.390900E+01,-1.310256E+01
+4.391700E+01,-5.551282E+00
+4.392500E+01,+6.538462E-01
+4.393300E+01,+1.467949E+01
+4.394100E+01,+2.888462E+01
+4.394900E+01,+4.191026E+01
+4.395700E+01,+6.130769E+01
+4.396500E+01,+8.853846E+01
+4.397300E+01,+1.065000E+02
+4.398100E+01,+9.638462E+01
+4.398900E+01,+7.233333E+01
+4.399700E+01,+6.308974E+01
+4.400500E+01,+7.858974E+01
+4.401300E+01,+1.001538E+02
+4.402100E+01,+1.113974E+02
+4.402900E+01,+1.131410E+02
+4.403700E+01,+1.069487E+02
+4.404500E+01,+8.710256E+01
+4.405300E+01,+5.938462E+01
+4.406100E+01,+4.529487E+01
+4.406900E+01,+4.428205E+01
+4.407700E+01,+3.246154E+01
+4.408500E+01,+2.346154E+00
+4.409300E+01,-3.221795E+01
+4.410100E+01,-5.265385E+01
+4.410900E+01,-6.224359E+01
+4.411700E+01,-7.265385E+01
+4.412500E+01,-7.493590E+01
+4.413300E+01,-6.130769E+01
+4.414100E+01,-4.123077E+01
+4.414900E+01,-3.117949E+01
+4.415700E+01,-3.233333E+01
+4.416500E+01,-3.261538E+01
+4.417300E+01,-3.957692E+01
+4.418100E+01,-6.471795E+01
+4.418900E+01,-9.103846E+01
+4.419700E+01,-9.062821E+01
+4.420500E+01,-6.006410E+01
+4.421300E+01,-2.417949E+01
+4.422100E+01,-4.128205E+00
+4.422900E+01,-3.141026E+00
+4.423700E+01,-2.448718E+01
+4.424500E+01,-6.346154E+01
+4.425300E+01,-9.270513E+01
+4.426100E+01,-8.215385E+01
+4.426900E+01,-3.653846E+01
+4.427700E+01,+3.038462E+00
+4.428500E+01,+1.171795E+01
+4.429300E+01,+2.820513E-01
+4.430100E+01,-1.487179E+01
+4.430900E+01,-2.470513E+01
+4.431700E+01,-2.346154E+01
+4.432500E+01,-9.333333E+00
+4.433300E+01,+2.102564E+00
+4.434100E+01,-1.435897E+01
+4.434900E+01,-5.119231E+01
+4.435700E+01,-7.123077E+01
+4.436500E+01,-6.606410E+01
+4.437300E+01,-4.741026E+01
+4.438100E+01,-3.800000E+01
+4.438900E+01,-2.715385E+01
+4.439700E+01,-1.130769E+01
+4.440500E+01,+1.474359E+00
+4.441300E+01,+2.038462E+00
+4.442100E+01,-7.000000E+00
+4.442900E+01,-1.712821E+01
+4.443700E+01,-2.830769E+01
+4.444500E+01,-4.358974E+01
+4.445300E+01,-6.085897E+01
+4.446100E+01,-6.765385E+01
+4.446900E+01,-5.253846E+01
+4.447700E+01,-2.480769E+01
+4.448500E+01,-5.423077E+00
+4.449300E+01,-5.179487E+00
+4.450100E+01,-1.167949E+01
+4.450900E+01,-6.589744E+00
+4.451700E+01,+6.051282E+00
+4.452500E+01,+1.448718E+01
+4.453300E+01,+1.820513E+01
+4.454100E+01,+2.298718E+01
+4.454900E+01,+2.576923E+01
+4.455700E+01,+1.333333E+01
+4.456500E+01,-6.551282E+00
+4.457300E+01,-9.192308E+00
+4.458100E+01,+6.666667E+00
+4.458900E+01,+1.350000E+01
+4.459700E+01,-6.935897E+00
+4.460500E+01,-3.280769E+01
+4.461300E+01,-3.478205E+01
+4.462100E+01,-1.453846E+01
+4.462900E+01,+6.782051E+00
+4.463700E+01,+1.085897E+01
+4.464500E+01,-6.641026E+00
+4.465300E+01,-4.116667E+01
+4.466100E+01,-7.593590E+01
+4.466900E+01,-6.511538E+01
+4.467700E+01,+9.016667E+01
+4.468500E+01,+2.423718E+02
+4.469300E+01,+2.911538E+02
+4.470100E+01,+1.409231E+02
+4.470900E+01,-2.008974E+01
+4.471700E+01,-9.367949E+01
+4.472500E+01,-7.997436E+01
+4.473300E+01,-3.775641E+01
+4.474100E+01,-4.474359E+00
+4.474900E+01,+1.030769E+01
+4.475700E+01,+3.564103E+00
+4.476500E+01,-1.652564E+01
+4.477300E+01,-2.388462E+01
+4.478100E+01,-4.153846E+00
+4.478900E+01,+2.230769E+01
+4.479700E+01,+2.812821E+01
+4.480500E+01,+1.007692E+01
+4.481300E+01,-1.282051E+01
+4.482100E+01,-2.697436E+01
+4.482900E+01,-2.787179E+01
+4.483700E+01,-1.491026E+01
+4.484500E+01,+7.628205E+00
+4.485300E+01,+3.176923E+01
+4.486100E+01,+4.597436E+01
+4.486900E+01,+5.056410E+01
+4.487700E+01,+5.326923E+01
+4.488500E+01,+5.755128E+01
+4.489300E+01,+6.282051E+01
+4.490100E+01,+6.687179E+01
+4.490900E+01,+7.632051E+01
+4.491700E+01,+9.847436E+01
+4.492500E+01,+1.301154E+02
+4.493300E+01,+1.553718E+02
+4.494100E+01,+1.565256E+02
+4.494900E+01,+1.419359E+02
+4.495700E+01,+1.373590E+02
+4.496500E+01,+1.496410E+02
+4.497300E+01,+1.537179E+02
+4.498100E+01,+1.240897E+02
+4.498900E+01,+7.726923E+01
+4.499700E+01,+4.783333E+01
+4.500500E+01,+4.106410E+01
+4.501300E+01,+2.787179E+01
+4.502100E+01,+3.141026E+00
+4.502900E+01,-2.585897E+01
+4.503700E+01,-3.470513E+01
+4.504500E+01,-2.779487E+01
+4.505300E+01,-1.600000E+01
+4.506100E+01,-2.073077E+01
+4.506900E+01,-4.662821E+01
+4.507700E+01,-6.764103E+01
+4.508500E+01,-5.661538E+01
+4.509300E+01,-2.425641E+01
+4.510100E+01,+1.666667E-01
+4.510900E+01,+1.794872E+00
+4.511700E+01,-1.633333E+01
+4.512500E+01,-4.015385E+01
+4.513300E+01,-5.292308E+01
+4.514100E+01,-4.080769E+01
+4.514900E+01,-1.185897E+01
+4.515700E+01,+2.705128E+00
+4.516500E+01,-1.247436E+01
+4.517300E+01,-3.773077E+01
+4.518100E+01,-4.389744E+01
+4.518900E+01,-2.812821E+01
+4.519700E+01,-1.428205E+01
+4.520500E+01,-1.683333E+01
+4.521300E+01,-2.820513E+01
+4.522100E+01,-3.192308E+01
+4.522900E+01,-1.797436E+01
+4.523700E+01,+4.512821E+00
+4.524500E+01,+1.457692E+01
+4.525300E+01,-2.974359E+00
+4.526100E+01,-3.950000E+01
+4.526900E+01,-6.466667E+01
+4.527700E+01,-6.333333E+01
+4.528500E+01,-5.000000E+01
+4.529300E+01,-4.466667E+01
+4.530100E+01,-4.855128E+01
+4.530900E+01,-4.434615E+01
+4.531700E+01,-2.646154E+01
+4.532500E+01,-6.846154E+00
+4.533300E+01,+4.487179E+00
+4.534100E+01,+2.089744E+00
+4.534900E+01,-1.711538E+01
+4.535700E+01,-3.744872E+01
+4.536500E+01,-4.858974E+01
+4.537300E+01,-4.369231E+01
+4.538100E+01,-3.608974E+01
+4.538900E+01,-2.725641E+01
+4.539700E+01,-1.558974E+01
+4.540500E+01,+1.141026E+00
+4.541300E+01,+1.634615E+01
+4.542100E+01,+2.856410E+01
+4.542900E+01,+3.802564E+01
+4.543700E+01,+3.685897E+01
+4.544500E+01,+1.962821E+01
+4.545300E+01,-9.512821E+00
+4.546100E+01,-3.052564E+01
+4.546900E+01,-2.980769E+01
+4.547700E+01,-1.871795E+01
+4.548500E+01,-1.423077E+01
+4.549300E+01,-2.114103E+01
+4.550100E+01,-2.928205E+01
+4.550900E+01,-2.857692E+01
+4.551700E+01,-2.257692E+01
+4.552500E+01,-1.925641E+01
+4.553300E+01,-2.851282E+01
+4.554100E+01,-5.414103E+01
+4.554900E+01,-7.396154E+01
+4.555700E+01,-4.217949E+01
+4.556500E+01,+6.832051E+01
+4.557300E+01,+2.084744E+02
+4.558100E+01,+2.746667E+02
+4.558900E+01,+2.132051E+02
+4.559700E+01,+7.566667E+01
+4.560500E+01,-3.523077E+01
+4.561300E+01,-7.096154E+01
+4.562100E+01,-6.510256E+01
+4.562900E+01,-6.208974E+01
+4.563700E+01,-6.720513E+01
+4.564500E+01,-5.910256E+01
+4.565300E+01,-3.344872E+01
+4.566100E+01,-1.185897E+01
+4.566900E+01,-7.512821E+00
+4.567700E+01,-1.105128E+01
+4.568500E+01,-1.033333E+01
+4.569300E+01,-6.576923E+00
+4.570100E+01,-6.435897E+00
+4.570900E+01,-3.192308E+00
+4.571700E+01,+7.384615E+00
+4.572500E+01,+1.811538E+01
+4.573300E+01,+1.993590E+01
+4.574100E+01,+2.164103E+01
+4.574900E+01,+3.260256E+01
+4.575700E+01,+4.297436E+01
+4.576500E+01,+4.152564E+01
+4.577300E+01,+3.232051E+01
+4.578100E+01,+3.587179E+01
+4.578900E+01,+6.114103E+01
+4.579700E+01,+9.217949E+01
+4.580500E+01,+1.166538E+02
+4.581300E+01,+1.303077E+02
+4.582100E+01,+1.297179E+02
+4.582900E+01,+1.143205E+02
+4.583700E+01,+9.558974E+01
+4.584500E+01,+9.532051E+01
+4.585300E+01,+1.075385E+02
+4.586100E+01,+1.046154E+02
+4.586900E+01,+7.970513E+01
+4.587700E+01,+5.221795E+01
+4.588500E+01,+4.074359E+01
+4.589300E+01,+3.220513E+01
+4.590100E+01,+1.158974E+01
+4.590900E+01,-9.884615E+00
+4.591700E+01,-2.184615E+01
+4.592500E+01,-2.769231E+01
+4.593300E+01,-3.701282E+01
+4.594100E+01,-4.878205E+01
+4.594900E+01,-5.915385E+01
+4.595700E+01,-7.178205E+01
+4.596500E+01,-7.828205E+01
+4.597300E+01,-6.829487E+01
+4.598100E+01,-4.800000E+01
+4.598900E+01,-3.041026E+01
+4.599700E+01,-1.935897E+01
+4.600500E+01,-1.137179E+01
+4.601300E+01,-3.647436E+01
+4.602100E+01,-7.064103E+01
+4.602900E+01,-9.400000E+01
+4.603700E+01,-7.779487E+01
+4.604500E+01,-5.715385E+01
+4.605300E+01,-4.738462E+01
+4.606100E+01,-3.930769E+01
+4.606900E+01,-2.625641E+01
+4.607700E+01,-1.901282E+01
+4.608500E+01,-2.320513E+01
+4.609300E+01,-3.046154E+01
+4.610100E+01,-3.110256E+01
+4.610900E+01,-2.930769E+01
+4.611700E+01,-3.697436E+01
+4.612500E+01,-5.329487E+01
+4.613300E+01,-7.019231E+01
+4.614100E+01,-7.652564E+01
+4.614900E+01,-6.652564E+01
+4.615700E+01,-4.985897E+01
+4.616500E+01,-3.789744E+01
+4.617300E+01,-3.671795E+01
+4.618100E+01,-3.826923E+01
+4.618900E+01,-3.473077E+01
+4.619700E+01,-3.400000E+01
+4.620500E+01,-3.867949E+01
+4.621300E+01,-4.387179E+01
+4.622100E+01,-4.120513E+01
+4.622900E+01,-2.901282E+01
+4.623700E+01,-2.012821E+01
+4.624500E+01,-1.773077E+01
+4.625300E+01,-1.466667E+01
+4.626100E+01,-2.461538E+00
+4.626900E+01,+1.594872E+01
+4.627700E+01,+1.865385E+01
+4.628500E+01,-4.769231E+00
+4.629300E+01,-3.984615E+01
+4.630100E+01,-6.124359E+01
+4.630900E+01,-5.737179E+01
+4.631700E+01,-4.541026E+01
+4.632500E+01,-4.121795E+01
+4.633300E+01,-4.402564E+01
+4.634100E+01,-4.447436E+01
+4.634900E+01,-4.993590E+01
+4.635700E+01,-7.082051E+01
+4.636500E+01,-7.653846E+01
+4.637300E+01,-1.078205E+01
+4.638100E+01,+1.311154E+02
+4.638900E+01,+2.551026E+02
+4.639700E+01,+2.495128E+02
+4.640500E+01,+1.113718E+02
+4.641300E+01,-4.962821E+01
+4.642100E+01,-1.275769E+02
+4.642900E+01,-1.217564E+02
+4.643700E+01,-9.394872E+01
+4.644500E+01,-7.476923E+01
+4.645300E+01,-5.537179E+01
+4.646100E+01,-2.414103E+01
+4.646900E+01,+9.012821E+00
+4.647700E+01,+2.585897E+01
+4.648500E+01,+1.821795E+01
+4.649300E+01,-1.143590E+01
+4.650100E+01,-4.343590E+01
+4.650900E+01,-5.353846E+01
+4.651700E+01,-3.897436E+01
+4.652500E+01,-1.607692E+01
+4.653300E+01,-1.794872E+00
+4.654100E+01,+5.076923E+00
+4.654900E+01,+1.247436E+01
+4.655700E+01,+1.825641E+01
+4.656500E+01,+2.224359E+01
+4.657300E+01,+2.911538E+01
+4.658100E+01,+4.212821E+01
+4.658900E+01,+5.857692E+01
+4.659700E+01,+7.092308E+01
+4.660500E+01,+7.780769E+01
+4.661300E+01,+8.203846E+01
+4.662100E+01,+8.701282E+01
+4.662900E+01,+9.457692E+01
+4.663700E+01,+1.027179E+02
+4.664500E+01,+1.124487E+02
+4.665300E+01,+1.219744E+02
+4.666100E+01,+1.261923E+02
+4.666900E+01,+1.224103E+02
+4.667700E+01,+9.874359E+01
+4.668500E+01,+7.155128E+01
+4.669300E+01,+4.134615E+01
+4.670100E+01,+2.698718E+01
+4.670900E+01,+1.815385E+01
+4.671700E+01,+9.666667E+00
+4.672500E+01,-8.897436E+00
+4.673300E+01,-4.020513E+01
+4.674100E+01,-6.487179E+01
+4.674900E+01,-6.726923E+01
+4.675700E+01,-5.148718E+01
+4.676500E+01,-3.493590E+01
+4.677300E+01,-2.869231E+01
+4.678100E+01,-2.714103E+01
+4.678900E+01,-2.839744E+01
+4.679700E+01,-3.944872E+01
+4.680500E+01,-6.026923E+01
+4.681300E+01,-7.789744E+01
+4.682100E+01,-7.661538E+01
+4.682900E+01,-5.673077E+01
+4.683700E+01,-3.142308E+01
+4.684500E+01,-1.520513E+01
+4.685300E+01,-1.694872E+01
+4.686100E+01,-2.557692E+01
+4.686900E+01,-2.306410E+01
+4.687700E+01,-1.221795E+01
+4.688500E+01,-1.247436E+01
+4.689300E+01,-3.311538E+01
+4.690100E+01,-5.343590E+01
+4.690900E+01,-5.182051E+01
+4.691700E+01,-3.829487E+01
+4.692500E+01,-3.323077E+01
+4.693300E+01,-4.108974E+01
+4.694100E+01,-4.698718E+01
+4.694900E+01,-4.123077E+01
+4.695700E+01,-3.335897E+01
+4.696500E+01,-2.806410E+01
+4.697300E+01,-2.610256E+01
+4.698100E+01,-2.773077E+01
+4.698900E+01,-2.566667E+01
+4.699700E+01,-1.587179E+01
+4.700500E+01,-5.743590E+00
+4.701300E+01,-2.235897E+01
+4.702100E+01,-4.297436E+01
+4.702900E+01,-4.924359E+01
+4.703700E+01,-3.139744E+01
+4.704500E+01,-1.866667E+01
+4.705300E+01,-1.160256E+01
+4.706100E+01,+1.192308E+00
+4.706900E+01,+1.183333E+01
+4.707700E+01,+7.576923E+00
+4.708500E+01,-4.474359E+00
+4.709300E+01,-8.653846E+00
+4.710100E+01,-2.935897E+00
+4.710900E+01,-6.807692E+00
+4.711700E+01,-3.029487E+01
+4.712500E+01,-5.924359E+01
+4.713300E+01,-7.564103E+01
+4.714100E+01,-6.800000E+01
+4.714900E+01,-4.353846E+01
+4.715700E+01,-2.280769E+01
+4.716500E+01,-2.541026E+01
+4.717300E+01,-5.480769E+01
+4.718100E+01,-7.005128E+01
+4.718900E+01,-1.274359E+01
+4.719700E+01,+1.210897E+02
+4.720500E+01,+2.488462E+02
+4.721300E+01,+2.627949E+02
+4.722100E+01,+1.460128E+02
+4.722900E+01,-1.033333E+01
+4.723700E+01,-1.018462E+02
+4.724500E+01,-9.993590E+01
+4.725300E+01,-5.574359E+01
+4.726100E+01,-2.614103E+01
+4.726900E+01,-2.571795E+01
+4.727700E+01,-3.923077E+01
+4.728500E+01,-4.732051E+01
+4.729300E+01,-4.588462E+01
+4.730100E+01,-4.117949E+01
+4.730900E+01,-3.675641E+01
+4.731700E+01,-3.396154E+01
+4.732500E+01,-2.800000E+01
+4.733300E+01,-1.558974E+01
+4.734100E+01,+4.166667E+00
+4.734900E+01,+1.639744E+01
+4.735700E+01,+1.497436E+01
+4.736500E+01,+6.025641E-01
+4.737300E+01,-8.871795E+00
+4.738100E+01,-2.589744E+00
+4.738900E+01,+1.467949E+01
+4.739700E+01,+3.243590E+01
+4.740500E+01,+4.808974E+01
+4.741300E+01,+6.756410E+01
+4.742100E+01,+9.673077E+01
+4.742900E+01,+1.215000E+02
+4.742900E+01,+1.344487E+02
+4.743700E+01,+1.276795E+02
+4.744500E+01,+1.120000E+02
+4.745300E+01,+9.573077E+01
+4.746100E+01,+9.014103E+01
+4.746900E+01,+9.074359E+01
+4.747700E+01,+8.738462E+01
+4.748500E+01,+7.926923E+01
+4.749300E+01,+6.750000E+01
+4.750100E+01,+5.648718E+01
+4.750900E+01,+4.957692E+01
+4.751700E+01,+4.714103E+01
+4.752500E+01,+4.412821E+01
+4.753300E+01,+2.630769E+01
+4.754100E+01,-6.794872E+00
+4.754900E+01,-3.802564E+01
+4.755700E+01,-5.151282E+01
+4.756500E+01,-4.960256E+01
+4.757300E+01,-5.200000E+01
+4.758100E+01,-6.197436E+01
+4.758900E+01,-6.324359E+01
+4.759700E+01,-5.155128E+01
+4.760500E+01,-3.871795E+01
+4.761300E+01,-3.506410E+01
+4.762100E+01,-3.433333E+01
+4.762900E+01,-2.973077E+01
+4.763700E+01,-3.037179E+01
+4.764500E+01,-3.851282E+01
+4.765300E+01,-4.571795E+01
+4.766100E+01,-4.564103E+01
+4.766900E+01,-3.808974E+01
+4.767700E+01,-2.342308E+01
+4.768500E+01,-1.403846E+01
+4.769300E+01,-2.356410E+01
+4.770100E+01,-5.144872E+01
+4.770900E+01,-6.985897E+01
+4.771700E+01,-5.989744E+01
+4.772500E+01,-3.157692E+01
+4.773300E+01,-1.442308E+01
+4.774100E+01,-1.793590E+01
+4.774900E+01,-2.941026E+01
+4.775700E+01,-2.916667E+01
+4.776500E+01,-1.728205E+01
+4.777300E+01,-1.602564E+01
+4.778100E+01,-3.135897E+01
+4.778900E+01,-4.850000E+01
+4.779700E+01,-5.120513E+01
+4.780500E+01,-4.161538E+01
+4.781300E+01,-3.734615E+01
+4.782100E+01,-3.680769E+01
+4.782900E+01,-3.430769E+01
+4.783700E+01,-3.360256E+01
+4.784500E+01,-3.110256E+01
+4.785300E+01,-1.460256E+01
+4.786100E+01,+2.166667E+01
+4.786900E+01,+4.730769E+01
+4.787700E+01,+2.944872E+01
+4.788500E+01,-1.515385E+01
+4.789300E+01,-3.864103E+01
+4.790100E+01,-1.774359E+01
+4.790900E+01,+1.475641E+01
+4.791700E+01,+2.346154E+01
+4.792500E+01,+1.300000E+01
+4.793300E+01,+1.128205E+00
+4.794100E+01,-1.148718E+01
+4.794900E+01,-3.347436E+01
+4.795700E+01,-5.625641E+01
+4.796500E+01,-6.532051E+01
+4.797300E+01,-6.053846E+01
+4.798100E+01,-5.108974E+01
+4.798900E+01,-4.134615E+01
+4.799700E+01,-3.614103E+01
+4.800500E+01,-4.325641E+01
+4.801300E+01,-2.230769E+01
+4.802100E+01,+6.035897E+01
+4.802900E+01,+1.984231E+02
+4.803700E+01,+2.853718E+02
+4.804500E+01,+2.415897E+02
+4.805300E+01,+8.923077E+01
+4.806100E+01,-5.983333E+01
+4.806900E+01,-1.187179E+02
+4.807700E+01,-9.274359E+01
+4.808500E+01,-4.315385E+01
+4.809300E+01,-1.988462E+01
+4.810100E+01,-2.674359E+01
+4.810900E+01,-4.550000E+01
+4.811700E+01,-5.480769E+01
+4.812500E+01,-4.096154E+01
+4.813300E+01,-1.417949E+01
+4.814100E+01,+4.538462E+00
+4.814900E+01,+3.589744E+00
+4.815700E+01,-6.512821E+00
+4.816500E+01,-8.294872E+00
+4.817300E+01,-3.064103E+00
+4.818100E+01,-9.358974E-01
+4.818900E+01,-7.487179E+00
+4.819700E+01,-1.743590E+01
+4.820500E+01,-1.635897E+01
+4.821300E+01,-5.512821E-01
+4.822100E+01,+2.156410E+01
+4.822900E+01,+3.896154E+01
+4.823700E+01,+5.105128E+01
+4.824500E+01,+6.993590E+01
+4.825300E+01,+9.162821E+01
+4.826100E+01,+1.008718E+02
+4.826900E+01,+9.521795E+01
+4.827700E+01,+8.632051E+01
+4.828500E+01,+9.217949E+01
+4.829300E+01,+1.053974E+02
+4.830100E+01,+1.062179E+02
+4.830900E+01,+1.014231E+02
+4.831700E+01,+1.115385E+02
+4.832500E+01,+1.397051E+02
+4.833300E+01,+1.450513E+02
+4.834100E+01,+6.484615E+01
+4.834900E+01,-1.653846E+01
+4.835700E+01,-6.025641E+01
+4.836500E+01,-3.519231E+01
+4.837300E+01,-2.508974E+01
+4.838100E+01,-2.985897E+01
+4.838900E+01,-3.475641E+01
+4.839700E+01,-3.629487E+01
+4.840500E+01,-4.062821E+01
+4.841300E+01,-4.771795E+01
+4.842100E+01,-4.692308E+01
+4.842900E+01,-4.158974E+01
+4.843700E+01,-3.923077E+01
+4.844500E+01,-4.100000E+01
+4.845300E+01,-4.538462E+01
+4.846100E+01,-4.271795E+01
+4.846900E+01,-3.605128E+01
+4.847700E+01,-3.548718E+01
+4.848500E+01,-4.082051E+01
+4.849300E+01,-4.674359E+01
+4.850100E+01,-4.371795E+01
+4.850900E+01,-3.752564E+01
+4.851700E+01,-3.824359E+01
+4.852500E+01,-4.135897E+01
+4.853300E+01,-4.123077E+01
+4.854100E+01,-3.497436E+01
+4.854900E+01,-2.946154E+01
+4.855700E+01,-2.974359E+01
+4.856500E+01,-2.974359E+01
+4.857300E+01,-2.503846E+01
+4.858100E+01,-1.183333E+01
+4.858900E+01,+6.025641E-01
+4.859700E+01,-1.012821E+00
+4.860500E+01,-9.923077E+00
+4.861300E+01,-1.243590E+01
+4.862100E+01,-6.692308E+00
+4.862900E+01,-1.094872E+01
+4.863700E+01,-3.462821E+01
+4.864500E+01,-5.587179E+01
+4.865300E+01,-5.388462E+01
+4.866100E+01,-3.466667E+01
+4.866900E+01,-1.723077E+01
+4.867700E+01,-1.225641E+01
+4.868500E+01,-1.634615E+01
+4.869300E+01,-2.187179E+01
+4.870100E+01,-2.035897E+01
